8.522040405273437500e+02
8.607557983398437500e+02
8.711918945312500000e+02
8.779884033203125000e+02
8.810003051757812500e+02
8.822058105468750000e+02
8.831865234375000000e+02
8.845097045898437500e+02
8.858672485351562500e+02
8.867184448242187500e+02
8.869130249023437500e+02
8.866854858398437500e+02
8.863673095703125000e+02
8.860786132812500000e+02
8.856779174804687500e+02
8.850100708007812500e+02
8.841453247070312500e+02
8.834787597656250000e+02
8.834763183593750000e+02
8.843806762695312500e+02
8.860261230468750000e+02
8.879294433593750000e+02
8.895636596679687500e+02
8.907626953125000000e+02
8.919745483398437500e+02
8.944011230468750000e+02
8.995634155273437500e+02
9.088836059570312500e+02
9.230176391601562500e+02
9.415675048828125000e+02
9.631903686523437500e+02
9.862581176757812500e+02
1.009362731933593750e+03
1.031430908203125000e+03
1.051726196289062500e+03
1.069712524414062500e+03
1.085098754882812500e+03
1.097834472656250000e+03
1.108103271484375000e+03
1.116200805664062500e+03
1.122410400390625000e+03
1.126924072265625000e+03
1.129636718750000000e+03
1.129836914062500000e+03
1.126293457031250000e+03
1.117658203125000000e+03
1.103350830078125000e+03
1.083947387695312500e+03
1.060813476562500000e+03
1.035398803710937500e+03
1.008653808593750000e+03
9.812303466796875000e+02
9.540368041992187500e+02
9.285004882812500000e+02
9.062935180664062500e+02
8.887714843750000000e+02
8.766268920898437500e+02
8.696568603515625000e+02
8.668750610351562500e+02
8.668316650390625000e+02
8.679403686523437500e+02
8.690149536132812500e+02
8.696451416015625000e+02
8.700291137695312500e+02
8.706266479492187500e+02
8.716697998046875000e+02
8.730515136718750000e+02
8.744708251953125000e+02
8.757929687500000000e+02
8.769893188476562500e+02
8.780017700195312500e+02
8.787924194335937500e+02
8.794213867187500000e+02
8.800575561523437500e+02
8.808474731445312500e+02
8.817113647460937500e+02
8.824855346679687500e+02
8.831463623046875000e+02
8.838665161132812500e+02
8.849055786132812500e+02
8.863084716796875000e+02
8.877398071289062500e+02
8.886724243164062500e+02
8.888555297851562500e+02
8.882947387695312500e+02
8.871837158203125000e+02
8.857887573242187500e+02
8.844897460937500000e+02
8.837822875976562500e+02
8.840595092773437500e+02
8.853283691406250000e+02
8.870925292968750000e+02
8.885581054687500000e+02
8.891339721679687500e+02
8.886855468750000000e+02
8.874937133789062500e+02
8.860122070312500000e+02
8.846976928710937500e+02
8.839365844726562500e+02
8.839498291015625000e+02
8.847142944335937500e+02
8.860623168945312500e+02
8.881119995117187500e+02
8.916920166015625000e+02
8.983615722656250000e+02
9.095767822265625000e+02
9.257975463867187500e+02
9.458336791992187500e+02
9.671596069335937500e+02
9.866440429687500000e+02
1.001397644042968750e+03
1.009389892578125000e+03
1.009630737304687500e+03
1.002064331054687500e+03
9.876502685546875000e+02
9.683597412109375000e+02
9.469521484375000000e+02
9.265117797851562500e+02
9.097506103515625000e+02
8.983392944335937500e+02
8.924693603515625000e+02
8.910574340820312500e+02
8.922467651367187500e+02
8.942106933593750000e+02
8.956485595703125000e+02
8.959820556640625000e+02
8.952759399414062500e+02
8.939356689453125000e+02
8.923809204101562500e+02
8.909710693359375000e+02
8.899948730468750000e+02
8.897165527343750000e+02
8.900633544921875000e+02
8.900184326171875000e+02
8.872520751953125000e+02
8.791970825195312500e+02
8.664308471679687500e+02
8.565780639648437500e+02
8.647913818359375000e+02
9.084313964843750000e+02
9.960280761718750000e+02
1.116755737304687500e+03
1.239218872070312500e+03
1.323152587890625000e+03
1.338341064453125000e+03
1.279882202148437500e+03
1.170183959960937500e+03
1.046769897460937500e+03
9.441674194335937500e+02
8.803652343750000000e+02
8.544738159179687500e+02
8.539824218750000000e+02
8.644547119140625000e+02
8.757504882812500000e+02
8.836266479492187500e+02
8.876940917968750000e+02
8.888128662109375000e+02
8.880023803710937500e+02
8.864169311523437500e+02
8.851494750976562500e+02
8.848278198242187500e+02
8.853518676757812500e+02
8.860734863281250000e+02
8.864391479492187500e+02
8.862923583984375000e+02
8.858980102539062500e+02
8.856143798828125000e+02
8.856185302734375000e+02
8.858831787109375000e+02
8.863483276367187500e+02
8.869795532226562500e+02
8.876822509765625000e+02
8.883844604492187500e+02
8.890745239257812500e+02
8.900599365234375000e+02
8.920623168945312500e+02
8.963153076171875000e+02
9.041729125976562500e+02
9.166672973632812500e+02
9.339091796875000000e+02
9.549804077148437500e+02
9.781125488281250000e+02
1.001364013671875000e+03
1.023173339843750000e+03
1.042708251953125000e+03
1.059713989257812500e+03
1.074488891601562500e+03
1.087765014648437500e+03
1.100238769531250000e+03
1.112068359375000000e+03
1.122513916015625000e+03
1.130292968750000000e+03
1.134229370117187500e+03
1.133796386718750000e+03
1.129191284179687500e+03
1.120910400390625000e+03
1.109180541992187500e+03
1.094095703125000000e+03
1.075905395507812500e+03
1.055121337890625000e+03
1.032187255859375000e+03
1.007230407714843750e+03
9.803222656250000000e+02
9.522916870117187500e+02
9.252600708007812500e+02
9.022135620117187500e+02
8.856785278320312500e+02
8.763927612304687500e+02
8.730197753906250000e+02
8.731937866210937500e+02
8.747446899414062500e+02
8.764033203125000000e+02
8.777525024414062500e+02
8.786545410156250000e+02
8.790161743164062500e+02
8.788480224609375000e+02
8.783146972656250000e+02
8.776262817382812500e+02
8.769565429687500000e+02
8.764672241210937500e+02
8.763384399414062500e+02
8.767327270507812500e+02
8.776652832031250000e+02
8.789484863281250000e+02
8.802561035156250000e+02
8.813414306640625000e+02
8.821560668945312500e+02
8.828753662109375000e+02
8.837777709960937500e+02
8.850208740234375000e+02
8.865477905273437500e+02
8.882064208984375000e+02
8.897071533203125000e+02
8.908175659179687500e+02
8.914081420898437500e+02
8.915258789062500000e+02
8.914103393554687500e+02
8.913073730468750000e+02
8.912683715820312500e+02
8.910765991210937500e+02
8.903967895507812500e+02
8.889940185546875000e+02
8.870282592773437500e+02
8.850765991210937500e+02
8.838220825195312500e+02
8.837135009765625000e+02
8.846531372070312500e+02
8.860650634765625000e+02
8.872291870117187500e+02
8.875565795898437500e+02
8.869731445312500000e+02
8.860090942382812500e+02
8.857145996093750000e+02
8.875070190429687500e+02
8.929746093750000000e+02
9.033075561523437500e+02
9.187053833007812500e+02
9.381250000000000000e+02
9.593909301757812500e+02
9.799264526367187500e+02
9.971610717773437500e+02
1.008870422363281250e+03
1.013359130859375000e+03
1.009587463378906250e+03
9.974839477539062500e+02
9.783992919921875000e+02
9.551879882812500000e+02
9.316750488281250000e+02
9.116618041992187500e+02
8.976684570312500000e+02
8.901213989257812500e+02
8.875760498046875000e+02
8.878922119140625000e+02
8.892792968750000000e+02
8.908688354492187500e+02
8.921740722656250000e+02
8.927571411132812500e+02
8.922876586914062500e+02
8.908361206054687500e+02
8.890613403320312500e+02
8.879263916015625000e+02
8.880874023437500000e+02
8.894827270507812500e+02
8.910126342773437500e+02
8.905600585937500000e+02
8.853507690429687500e+02
8.737497558593750000e+02
8.589314575195312500e+02
8.516929321289062500e+02
8.690666503906250000e+02
9.269195556640625000e+02
1.028475097656250000e+03
1.155894165039062500e+03
1.273039306640625000e+03
1.340256347656250000e+03
1.333575805664062500e+03
1.256705322265625000e+03
1.138503417968750000e+03
1.017740295410156250e+03
9.252507934570312500e+02
8.731990356445312500e+02
8.561021118164062500e+02
8.596416625976562500e+02
8.698379516601562500e+02
8.781978759765625000e+02
8.823404541015625000e+02
8.833510742187500000e+02
8.829403686523437500e+02
8.821936035156250000e+02
8.814962158203125000e+02
8.809895629882812500e+02
8.807326049804687500e+02
8.807993164062500000e+02
8.812358398437500000e+02
8.819332275390625000e+02
8.827130737304687500e+02
8.834669189453125000e+02
8.842250366210937500e+02
8.850044555664062500e+02
8.857276611328125000e+02
8.862276611328125000e+02
8.864031372070312500e+02
8.863939819335937500e+02
8.865305175781250000e+02
8.872444458007812500e+02
8.889912719726562500e+02
8.922679443359375000e+02
8.977971801757812500e+02
9.065634155273437500e+02
9.194289550781250000e+02
9.366075439453125000e+02
9.573410034179687500e+02
9.801228027343750000e+02
1.003346557617187500e+03
1.025671142578125000e+03
1.046039184570312500e+03
1.063710083007812500e+03
1.078509643554687500e+03
1.090917724609375000e+03
1.101741821289062500e+03
1.111448730468750000e+03
1.119684936523437500e+03
1.125611328125000000e+03
1.128549682617187500e+03
1.128215698242187500e+03
1.124415893554687500e+03
1.116756103515625000e+03
1.104876464843750000e+03
1.089030883789062500e+03
1.069988647460937500e+03
1.048565551757812500e+03
1.025122192382812500e+03
9.996536254882812500e+02
9.724750366210937500e+02
9.448980102539062500e+02
9.192717895507812500e+02
8.981113281250000000e+02
8.829309692382812500e+02
8.737062377929687500e+02
8.691691894531250000e+02
8.676154174804687500e+02
8.675655517578125000e+02
8.681716308593750000e+02
8.691157836914062500e+02
8.702244873046875000e+02
8.713872680664062500e+02
8.726533813476562500e+02
8.741616821289062500e+02
8.758281250000000000e+02
8.772578735351562500e+02
8.781796875000000000e+02
8.787053222656250000e+02
8.791973266601562500e+02
8.799182739257812500e+02
8.807705688476562500e+02
8.814557495117187500e+02
8.817442626953125000e+02
8.817206420898437500e+02
8.817267456054687500e+02
8.820740966796875000e+02
8.828338623046875000e+02
8.838839721679687500e+02
8.849462890625000000e+02
8.856843261718750000e+02
8.857067871093750000e+02
8.847880859375000000e+02
8.830907592773437500e+02
8.811885986328125000e+02
8.798854980468750000e+02
8.797937011718750000e+02
8.810166015625000000e+02
8.830532836914062500e+02
8.850528564453125000e+02
8.862644653320312500e+02
8.864369506835937500e+02
8.858270263671875000e+02
8.848844604492187500e+02
8.839350585937500000e+02
8.831671142578125000e+02
8.826646118164062500e+02
8.824312744140625000e+02
8.824220581054687500e+02
8.825787963867187500e+02
8.831690673828125000e+02
8.851275634765625000e+02
8.902811889648437500e+02
9.005239868164062500e+02
9.166737060546875000e+02
9.377437133789062500e+02
9.611133422851562500e+02
9.834237670898437500e+02
1.001402343750000000e+03
1.012555725097656250e+03
1.015432983398437500e+03
1.009659057617187500e+03
9.959249877929687500e+02
9.760833740234375000e+02
9.529481201171875000e+02
9.298814086914062500e+02
9.101202392578125000e+02
8.961042480468750000e+02
8.885942382812500000e+02
8.865377807617187500e+02
8.876774902343750000e+02
8.897303466796875000e+02
8.913292846679687500e+02
8.921675415039062500e+02
8.925619506835937500e+02
8.928640136718750000e+02
8.931055297851562500e+02
8.931341552734375000e+02
8.928681030273437500e+02
8.924863281250000000e+02
8.922393188476562500e+02
8.917200927734375000e+02
8.894082031250000000e+02
8.827993774414062500e+02
8.707091064453125000e+02
8.574960327148437500e+02
8.556091308593750000e+02
8.827755126953125000e+02
9.528353881835937500e+02
1.063743286132812500e+03
1.191494506835937500e+03
1.296854614257812500e+03
1.342786376953125000e+03
1.312864135742187500e+03
1.219217407226562500e+03
1.095478149414062500e+03
9.796249389648437500e+02
8.976292114257812500e+02
8.561572875976562500e+02
8.463208007812500000e+02
8.532684936523437500e+02
8.643046875000000000e+02
8.727553710937500000e+02
8.774542236328125000e+02
8.798224487304687500e+02
8.813521118164062500e+02
8.828557128906250000e+02
8.843895874023437500e+02
8.857209472656250000e+02
8.865582885742187500e+02
8.868761596679687500e+02
8.868829956054687500e+02
8.868312377929687500e+02
8.869078369140625000e+02
8.870693969726562500e+02
8.872442016601562500e+02
8.873544311523437500e+02
8.874515380859375000e+02
8.876925659179687500e+02
8.881089477539062500e+02
8.885178222656250000e+02
8.886806640625000000e+02
8.887185058593750000e+02
8.896282958984375000e+02
8.931109008789062500e+02
9.009353637695312500e+02
9.139464111328125000e+02
9.316777343750000000e+02
9.526420898437500000e+02
9.750926513671875000e+02
9.977569580078125000e+02
1.019829040527343750e+03
1.040598754882812500e+03
1.059287963867187500e+03
1.075416625976562500e+03
1.089074462890625000e+03
1.100569213867187500e+03
1.110004394531250000e+03
1.117065673828125000e+03
1.121297851562500000e+03
1.122491577148437500e+03
1.120752441406250000e+03
1.116282836914062500e+03
1.108880859375000000e+03
1.097987548828125000e+03
1.083095092773437500e+03
1.064145874023437500e+03
1.041492065429687500e+03
1.015792907714843750e+03
9.880950317382812500e+02
9.599261474609375000e+02
9.331388549804687500e+02
9.096757202148437500e+02
8.910961303710937500e+02
8.782390136718750000e+02
8.709801025390625000e+02
8.684130249023437500e+02
8.691293334960937500e+02
8.715141601562500000e+02
8.741520996093750000e+02
8.760627441406250000e+02
8.768334960937500000e+02
8.766355590820312500e+02
8.760921630859375000e+02
8.759603271484375000e+02
8.767378540039062500e+02
8.782980957031250000e+02
8.800463867187500000e+02
8.813306274414062500e+02
8.818510742187500000e+02
8.817945556640625000e+02
8.817104492187500000e+02
8.820084228515625000e+02
8.826660766601562500e+02
8.831911621093750000e+02
8.830686035156250000e+02
8.822175292968750000e+02
8.811743774414062500e+02
8.807371826171875000e+02
8.814005737304687500e+02
8.830944824218750000e+02
8.852512817382812500e+02
8.871458129882812500e+02
8.882546997070312500e+02
8.884100341796875000e+02
8.877914428710937500e+02
8.868284301757812500e+02
8.860706176757812500e+02
8.859939575195312500e+02
8.865952758789062500e+02
8.874271850585937500e+02
8.879176025390625000e+02
8.879204101562500000e+02
8.877727661132812500e+02
8.879481811523437500e+02
8.886242065429687500e+02
8.895352172851562500e+02
8.902012939453125000e+02
8.905237426757812500e+02
8.912550659179687500e+02
8.939895019531250000e+02
9.005184326171875000e+02
9.119394531250000000e+02
9.282153320312500000e+02
9.480137329101562500e+02
9.689570922851562500e+02
9.881641845703125000e+02
1.002864501953125000e+03
1.010965698242187500e+03
1.011286376953125000e+03
1.003756469726562500e+03
9.894193725585937500e+02
9.702583007812500000e+02
9.489321899414062500e+02
9.283375244140625000e+02
9.109705200195312500e+02
8.982993774414062500e+02
8.904633178710937500e+02
8.867226562500000000e+02
8.858848266601562500e+02
8.866849975585937500e+02
8.880673828125000000e+02
8.892800292968750000e+02
8.899159545898437500e+02
8.899344482421875000e+02
8.896510009765625000e+02
8.894354248046875000e+02
8.894713745117187500e+02
8.897166137695312500e+02
8.898586425781250000e+02
8.889005126953125000e+02
8.848134765625000000e+02
8.752360839843750000e+02
8.605814208984375000e+02
8.480809936523437500e+02
8.527677001953125000e+02
8.926327514648437500e+02
9.778108520507812500e+02
1.099437255859375000e+03
1.227225097656250000e+03
1.320185668945312500e+03
1.345465087890625000e+03
1.294727539062500000e+03
1.187803466796875000e+03
1.061894287109375000e+03
9.533782958984375000e+02
8.831531372070312500e+02
8.525406494140625000e+02
8.496001586914062500e+02
8.592214355468750000e+02
8.703344116210937500e+02
8.782988281250000000e+02
8.830726928710937500e+02
8.860243530273437500e+02
8.880845947265625000e+02
8.894727783203125000e+02
8.899898071289062500e+02
8.895867309570312500e+02
8.885434570312500000e+02
8.874384765625000000e+02
8.867874755859375000e+02
8.867705078125000000e+02
8.871041259765625000e+02
8.872787475585937500e+02
8.869003906250000000e+02
8.859486083984375000e+02
8.847677612304687500e+02
8.838134765625000000e+02
8.833412475585937500e+02
8.832731933593750000e+02
8.833882446289062500e+02
8.837162475585937500e+02
8.848219604492187500e+02
8.878750000000000000e+02
8.941947021484375000e+02
9.048140258789062500e+02
9.199815673828125000e+02
9.391472167968750000e+02
9.611018676757812500e+02
9.843607177734375000e+02
1.007567993164062500e+03
1.029696044921875000e+03
1.049952270507812500e+03
1.067811523437500000e+03
1.083044555664062500e+03
1.095671386718750000e+03
1.105833129882812500e+03
1.113681274414062500e+03
1.119364624023437500e+03
1.123089111328125000e+03
1.125027954101562500e+03
1.125003295898437500e+03
1.122224975585937500e+03
1.115214111328125000e+03
1.102566894531250000e+03
1.083843505859375000e+03
1.059895751953125000e+03
1.032545410156250000e+03
1.003834167480468750e+03
9.755408935546875000e+02
9.489052734375000000e+02
9.249215087890625000e+02
9.046229248046875000e+02
8.890631713867187500e+02
8.788461303710937500e+02
8.736363525390625000e+02
8.721175537109375000e+02
8.723704833984375000e+02
8.726517944335937500e+02
8.720996704101562500e+02
8.710042724609375000e+02
8.703170776367187500e+02
8.709128417968750000e+02
8.729810791015625000e+02
8.760245971679687500e+02
8.790061645507812500e+02
8.810168457031250000e+02
8.817520751953125000e+02
8.815510253906250000e+02
8.810560913085937500e+02
8.808057250976562500e+02
8.809641723632812500e+02
8.814681396484375000e+02
8.820808715820312500e+02
8.824972534179687500e+02
8.825112304687500000e+02
8.820016479492187500e+02
8.811148071289062500e+02
8.802510375976562500e+02
8.798421020507812500e+02
8.800324707031250000e+02
8.806602172851562500e+02
8.815265502929687500e+02
8.826237182617187500e+02
8.840891113281250000e+02
8.858585815429687500e+02
8.874563598632812500e+02
8.882913208007812500e+02
8.880673217773437500e+02
8.871231079101562500e+02
8.862463378906250000e+02
8.861638183593750000e+02
8.870568237304687500e+02
8.884811401367187500e+02
8.897573242187500000e+02
8.903917236328125000e+02
8.903197021484375000e+02
8.898766479492187500e+02
8.897205810546875000e+02
8.909223632812500000e+02
8.949862060546875000e+02
9.034621582031250000e+02
9.171660156250000000e+02
9.355014038085937500e+02
9.563084716796875000e+02
9.765964355468750000e+02
9.934417114257812500e+02
1.004658386230468750e+03
1.008950561523437500e+03
1.005870056152343750e+03
9.957061157226562500e+02
9.795492553710937500e+02
9.595372924804687500e+02
9.386521606445312500e+02
9.199444580078125000e+02
9.057262573242187500e+02
8.968059692382812500e+02
8.924044189453125000e+02
8.907711791992187500e+02
8.901051635742187500e+02
8.894420166015625000e+02
8.888254394531250000e+02
8.888531494140625000e+02
8.899130859375000000e+02
8.918446655273437500e+02
8.938782348632812500e+02
8.952194824218750000e+02
8.957223510742187500e+02
8.958452148437500000e+02
8.958165893554687500e+02
8.947294921875000000e+02
8.901354980468750000e+02
8.798261108398437500e+02
8.655991821289062500e+02
8.568438110351562500e+02
8.697813720703125000e+02
9.209235229492187500e+02
1.015796020507812500e+03
1.139792846679687500e+03
1.259026977539062500e+03
1.333570800781250000e+03
1.336475585937500000e+03
1.267366577148437500e+03
1.152207153320312500e+03
1.029627197265625000e+03
9.326849975585937500e+02
8.763448486328125000e+02
8.566307983398437500e+02
8.589598999023437500e+02
8.684172363281250000e+02
8.758447875976562500e+02
8.789150390625000000e+02
8.791345214843750000e+02
8.786024169921875000e+02
8.785018920898437500e+02
8.792212524414062500e+02
8.806666259765625000e+02
8.824940795898437500e+02
8.841776123046875000e+02
8.852152709960937500e+02
8.854898071289062500e+02
8.853358154296875000e+02
8.853051147460937500e+02
8.856517944335937500e+02
8.861524658203125000e+02
8.864313964843750000e+02
8.864252929687500000e+02
8.863914794921875000e+02
8.866666259765625000e+02
8.872525634765625000e+02
8.878189697265625000e+02
8.881072387695312500e+02
8.885771484375000000e+02
8.906586303710937500e+02
8.963224487304687500e+02
9.071653442382812500e+02
9.235924682617187500e+02
9.445755004882812500e+02
9.681978149414062500e+02
9.925585327148437500e+02
1.016284240722656250e+03
1.038434204101562500e+03
1.058238891601562500e+03
1.075108886718750000e+03
1.088896118164062500e+03
1.100041625976562500e+03
1.109291381835937500e+03
1.117107788085937500e+03
1.123254638671875000e+03
1.126969848632812500e+03
1.127427124023437500e+03
1.124108886718750000e+03
1.116813842773437500e+03
1.105551269531250000e+03
1.090365844726562500e+03
1.071406127929687500e+03
1.048905639648437500e+03
1.023350463867187500e+03
9.955119018554687500e+02
9.666039428710937500e+02
9.383865966796875000e+02
9.130627441406250000e+02
8.927302246093750000e+02
8.786216430664062500e+02
8.706831665039062500e+02
8.676491088867187500e+02
8.677145385742187500e+02
8.692444458007812500e+02
8.710709228515625000e+02
8.724636840820312500e+02
8.730680541992187500e+02
8.728038940429687500e+02
8.720339965820312500e+02
8.712725219726562500e+02
8.708823242187500000e+02
8.709961547851562500e+02
8.715940551757812500e+02
8.725614624023437500e+02
8.736842041015625000e+02
8.746383666992187500e+02
8.751262207031250000e+02
8.751378173828125000e+02
8.750044555664062500e+02
8.752243652343750000e+02
8.761240844726562500e+02
8.775183715820312500e+02
8.787943115234375000e+02
8.793013305664062500e+02
8.787821655273437500e+02
8.775389404296875000e+02
8.763489990234375000e+02
8.760164794921875000e+02
8.767813720703125000e+02
8.782070312500000000e+02
8.794412841796875000e+02
8.798485107421875000e+02
8.794632568359375000e+02
8.789779052734375000e+02
8.793000488281250000e+02
8.809138793945312500e+02
8.835544433593750000e+02
8.863997802734375000e+02
8.884721679687500000e+02
8.892041015625000000e+02
8.886644287109375000e+02
8.874810180664062500e+02
8.864340820312500000e+02
8.859944458007812500e+02
8.861942749023437500e+02
8.868496093750000000e+02
8.881818847656250000e+02
8.914719848632812500e+02
8.987800292968750000e+02
9.117670288085937500e+02
9.303920898437500000e+02
9.524478759765625000e+02
9.743561401367187500e+02
9.924005126953125000e+02
1.003939025878906250e+03
1.007853271484375000e+03
1.004072631835937500e+03
9.931578369140625000e+02
9.763450317382812500e+02
9.557258300781250000e+02
9.341247558593750000e+02
9.145835571289062500e+02
8.996245727539062500e+02
8.904656982421875000e+02
8.866549682617187500e+02
8.863911132812500000e+02
8.875426635742187500e+02
8.886258544921875000e+02
8.890808715820312500e+02
8.890933227539062500e+02
8.891702880859375000e+02
8.896416625976562500e+02
8.904652709960937500e+02
8.913420410156250000e+02
8.919786987304687500e+02
8.922817382812500000e+02
8.918110961914062500e+02
8.892457885742187500e+02
8.823457641601562500e+02
8.698536376953125000e+02
8.553819580078125000e+02
8.504398803710937500e+02
8.724705810546875000e+02
9.364528808593750000e+02
1.042889038085937500e+03
1.170618774414062500e+03
1.281901245117187500e+03
1.338510742187500000e+03
1.320361938476562500e+03
1.235306640625000000e+03
1.114446777343750000e+03
9.960823974609375000e+02
9.088401489257812500e+02
8.624979248046875000e+02
8.500165405273437500e+02
8.564809570312500000e+02
8.681040649414062500e+02
8.771476440429687500e+02
8.819772338867187500e+02
8.839623413085937500e+02
8.846003417968750000e+02
8.846033325195312500e+02
8.840218505859375000e+02
8.828693847656250000e+02
8.813487548828125000e+02
8.798353271484375000e+02
8.786431274414062500e+02
8.780127563476562500e+02
8.780624389648437500e+02
8.786788330078125000e+02
8.795926513671875000e+02
8.805087280273437500e+02
8.813908691406250000e+02
8.824194335937500000e+02
8.837377319335937500e+02
8.852852172851562500e+02
8.867420043945312500e+02
8.877814941406250000e+02
8.886354370117187500e+02
8.903994750976562500e+02
8.947329711914062500e+02
9.031981811523437500e+02
9.165326538085937500e+02
9.344156494140625000e+02
9.557687988281250000e+02
9.791378173828125000e+02
1.003100341796875000e+03
1.026431152343750000e+03
1.047994262695312500e+03
1.066903076171875000e+03
1.082889038085937500e+03
1.096291625976562500e+03
1.107603271484375000e+03
1.117051391601562500e+03
1.124430786132812500e+03
1.129291625976562500e+03
1.131229980468750000e+03
1.129878051757812500e+03
1.124980590820312500e+03
1.116366577148437500e+03
1.103873413085937500e+03
1.087656127929687500e+03
1.068127441406250000e+03
1.045715820312500000e+03
1.020909057617187500e+03
9.944336547851562500e+02
9.673918457031250000e+02
9.412573242187500000e+02
9.177258911132812500e+02
8.983864746093750000e+02
8.843883056640625000e+02
8.759277954101562500e+02
8.721388549804687500e+02
