8.908086547851562500e+02
8.918972167968750000e+02
8.928079223632812500e+02
8.934315185546875000e+02
8.935657348632812500e+02
8.931450805664062500e+02
8.923536376953125000e+02
8.914336547851562500e+02
8.904004516601562500e+02
8.885892944335937500e+02
8.842944335937500000e+02
8.755279541015625000e+02
8.627338256835937500e+02
8.524791870117187500e+02
8.585955200195312500e+02
8.979992065429687500e+02
9.808356933593750000e+02
1.099681396484375000e+03
1.226043579101562500e+03
1.319915893554687500e+03
1.348137695312500000e+03
1.301041259765625000e+03
1.197023803710937500e+03
1.072409301757812500e+03
9.634942626953125000e+02
8.916717529296875000e+02
8.590646972656250000e+02
8.544580078125000000e+02
8.630278320312500000e+02
8.734309082031250000e+02
8.803961181640625000e+02
8.834159545898437500e+02
8.839116821289062500e+02
8.832417602539062500e+02
8.821837768554687500e+02
8.810161132812500000e+02
8.800249633789062500e+02
8.797211303710937500e+02
8.806487426757812500e+02
8.830000000000000000e+02
8.862819213867187500e+02
8.894511718750000000e+02
8.914123535156250000e+02
8.915806884765625000e+02
8.902573852539062500e+02
8.883319091796875000e+02
8.866643676757812500e+02
8.856713256835937500e+02
8.853161621093750000e+02
8.856116333007812500e+02
8.870450439453125000e+02
8.908184204101562500e+02
8.983459472656250000e+02
9.105603027343750000e+02
9.273386230468750000e+02
9.476735839843750000e+02
9.700814208984375000e+02
9.931361694335937500e+02
1.015674560546875000e+03
1.036801757812500000e+03
1.055669433593750000e+03
1.071651489257812500e+03
1.084809936523437500e+03
1.095884155273437500e+03
1.105697753906250000e+03
1.114508422851562500e+03
1.121908569335937500e+03
1.127083984375000000e+03
1.129304443359375000e+03
1.127977050781250000e+03
1.122627197265625000e+03
1.112690551757812500e+03
1.097957397460937500e+03
1.078910400390625000e+03
1.056685058593750000e+03
1.032334594726562500e+03
1.006371459960937500e+03
9.791746826171875000e+02
9.517045288085937500e+02
9.258625488281250000e+02
9.040652465820312500e+02
8.881375732421875000e+02
8.784053344726562500e+02
8.736428222656250000e+02
8.718814086914062500e+02
8.715065307617187500e+02
8.717585449218750000e+02
8.725927124023437500e+02
8.739705200195312500e+02
8.755727539062500000e+02
8.769957885742187500e+02
8.780789184570312500e+02
8.790615234375000000e+02
8.802564697265625000e+02
8.816384277343750000e+02
8.827665405273437500e+02
8.831546020507812500e+02
8.827061157226562500e+02
8.817954711914062500e+02
8.809896850585937500e+02
8.807462158203125000e+02
8.812093505859375000e+02
8.821916503906250000e+02
8.832274169921875000e+02
8.839213867187500000e+02
8.841945190429687500e+02
8.843239135742187500e+02
8.846854858398437500e+02
8.854730224609375000e+02
8.865418701171875000e+02
8.875098266601562500e+02
8.881589965820312500e+02
8.885332031250000000e+02
8.887699584960937500e+02
8.888327026367187500e+02
8.885693969726562500e+02
8.879967041015625000e+02
8.873911743164062500e+02
8.871456298828125000e+02
8.874584960937500000e+02
8.881450805664062500e+02
8.887326049804687500e+02
8.887412109375000000e+02
8.880582885742187500e+02
8.869652709960937500e+02
8.858851928710937500e+02
8.851765747070312500e+02
8.851748046875000000e+02
8.865151367187500000e+02
8.905068969726562500e+02
8.988758544921875000e+02
9.128982543945312500e+02
9.324270629882812500e+02
9.554613037109375000e+02
9.786144409179687500e+02
9.981871337890625000e+02
1.011264404296875000e+03
1.016294067382812500e+03
1.012949401855468750e+03
1.001923950195312500e+03
9.845728759765625000e+02
9.629174804687500000e+02
9.398117065429687500e+02
9.186237792968750000e+02
9.023204345703125000e+02
8.922561645507812500e+02
8.878430786132812500e+02
8.871551513671875000e+02
8.880042114257812500e+02
8.888763427734375000e+02
8.892302246093750000e+02
8.892651367187500000e+02
8.893216552734375000e+02
8.895543823242187500e+02
8.901296997070312500e+02
8.911121215820312500e+02
8.925201416015625000e+02
8.940386352539062500e+02
8.945285644531250000e+02
8.914509887695312500e+02
8.821696166992187500e+02
8.678898315429687500e+02
8.576659545898437500e+02
8.681408691406250000e+02
9.168027343750000000e+02
1.010144470214843750e+03
1.134005493164062500e+03
1.254408081054687500e+03
1.331027221679687500e+03
1.336431274414062500e+03
1.269642822265625000e+03
1.155957397460937500e+03
1.033495605468750000e+03
9.353052978515625000e+02
8.768928833007812500e+02
8.551105346679687500e+02
8.560480957031250000e+02
8.650326538085937500e+02
8.728641967773437500e+02
8.769488525390625000e+02
8.784251708984375000e+02
8.789270019531250000e+02
8.791676635742187500e+02
8.792368774414062500e+02
8.791672363281250000e+02
8.792753295898437500e+02
8.798998413085937500e+02
8.810495605468750000e+02
8.824315185546875000e+02
8.837139282226562500e+02
8.847891845703125000e+02
8.856928100585937500e+02
8.863901367187500000e+02
8.866909790039062500e+02
8.864854125976562500e+02
8.859743652343750000e+02
8.856145629882812500e+02
8.858343505859375000e+02
8.867783813476562500e+02
8.884154663085937500e+02
8.911015014648437500e+02
8.958218994140625000e+02
9.038527832031250000e+02
9.160734863281250000e+02
9.324378662109375000e+02
9.521054077148437500e+02
9.738035278320312500e+02
9.963331298828125000e+02
1.018710388183593750e+03
1.040059936523437500e+03
1.059484008789062500e+03
1.076387084960937500e+03
1.090863891601562500e+03
1.103521484375000000e+03
1.114917358398437500e+03
1.124924194335937500e+03
1.132677612304687500e+03
1.137029052734375000e+03
1.137198364257812500e+03
1.133091796875000000e+03
1.124963012695312500e+03
1.112903320312500000e+03
1.096824584960937500e+03
1.076807983398437500e+03
1.053317260742187500e+03
1.027192749023437500e+03
9.993931884765625000e+02
9.708853759765625000e+02
9.428111572265625000e+02
9.168274536132812500e+02
8.950146484375000000e+02
8.793078002929687500e+02
8.704615478515625000e+02
8.674298706054687500e+02
8.678316040039062500e+02
8.691244506835937500e+02
8.697044067382812500e+02
8.693134155273437500e+02
8.686166381835937500e+02
8.683146362304687500e+02
8.687335815429687500e+02
8.698206176757812500e+02
8.714913330078125000e+02
8.736898193359375000e+02
8.762954711914062500e+02
8.790661010742187500e+02
8.817080688476562500e+02
8.839237060546875000e+02
8.854342041015625000e+02
8.860650024414062500e+02
8.857634887695312500e+02
8.846730346679687500e+02
8.831718750000000000e+02
8.817736816406250000e+02
8.809971923828125000e+02
8.811533203125000000e+02
8.822868652343750000e+02
8.840706787109375000e+02
8.859243164062500000e+02
8.872401733398437500e+02
8.876788940429687500e+02
8.873148803710937500e+02
8.865560302734375000e+02
8.858052978515625000e+02
8.851755371093750000e+02
8.844545288085937500e+02
8.834912719726562500e+02
8.824581298828125000e+02
8.817760620117187500e+02
8.818588256835937500e+02
8.827551879882812500e+02
8.841849975585937500e+02
8.856894531250000000e+02
8.869204711914062500e+02
8.877047119140625000e+02
8.879840698242187500e+02
8.877893066406250000e+02
8.876035156250000000e+02
8.887616577148437500e+02
8.934650878906250000e+02
9.037362670898437500e+02
9.201433715820312500e+02
9.412284545898437500e+02
9.638215332031250000e+02
9.844815063476562500e+02
1.000609924316406250e+03
1.010807861328125000e+03
1.014367309570312500e+03
1.010740844726562500e+03
9.996074829101562500e+02
9.815577392578125000e+02
9.588218994140625000e+02
9.351506958007812500e+02
9.147340698242187500e+02
9.006169433593750000e+02
8.934492187500000000e+02
8.915435791015625000e+02
8.921586914062500000e+02
8.930067749023437500e+02
8.932105102539062500e+02
8.929296264648437500e+02
8.926147460937500000e+02
8.924625244140625000e+02
8.923873901367187500e+02
8.922926635742187500e+02
8.924074096679687500e+02
8.930813598632812500e+02
8.943872680664062500e+02
8.955512695312500000e+02
8.946015625000000000e+02
8.887984008789062500e+02
8.767997436523437500e+02
8.626160278320312500e+02
8.581434326171875000e+02
8.808103027343750000e+02
9.452462768554687500e+02
1.051699218750000000e+03
1.179152587890625000e+03
1.290231079101562500e+03
1.346974121093750000e+03
1.329246826171875000e+03
1.244524169921875000e+03
1.123462402343750000e+03
1.004266784667968750e+03
9.157090454101562500e+02
8.678349609375000000e+02
8.538677368164062500e+02
8.591824951171875000e+02
8.702445068359375000e+02
8.793984985351562500e+02
8.848812255859375000e+02
8.877151489257812500e+02
8.891385498046875000e+02
8.896943969726562500e+02
8.893726806640625000e+02
8.881641235351562500e+02
8.863671264648437500e+02
8.845365600585937500e+02
8.833008422851562500e+02
8.830624389648437500e+02
8.838217773437500000e+02
8.852246704101562500e+02
8.867744140625000000e+02
8.880601196289062500e+02
8.888903198242187500e+02
8.891705932617187500e+02
8.889451904296875000e+02
8.884951782226562500e+02
8.882581787109375000e+02
8.887360839843750000e+02
8.904079589843750000e+02
8.939183959960937500e+02
9.000883789062500000e+02
9.097805786132812500e+02
9.234620361328125000e+02
9.408499145507812500e+02
9.608966674804687500e+02
9.822037963867187500e+02
1.003591308593750000e+03
1.024331787109375000e+03
1.043902709960937500e+03
1.061766723632812500e+03
1.077445190429687500e+03
1.090886962890625000e+03
1.102440185546875000e+03
1.112565429687500000e+03
1.121402832031250000e+03
1.128453002929687500e+03
1.132719482421875000e+03
1.133198608398437500e+03
1.129324584960937500e+03
1.120967041015625000e+03
1.108134887695312500e+03
1.090944824218750000e+03
1.069690673828125000e+03
1.044988037109375000e+03
1.017819274902343750e+03
9.894703369140625000e+02
9.614233398437500000e+02
9.352009887695312500e+02
9.122443237304687500e+02
8.937687377929687500e+02
8.805410766601562500e+02
8.725120849609375000e+02
8.689597167968750000e+02
8.686638183593750000e+02
8.702793579101562500e+02
8.725938110351562500e+02
8.747883911132812500e+02
8.763819580078125000e+02
8.772600097656250000e+02
8.775485839843750000e+02
8.774818115234375000e+02
8.773596801757812500e+02
8.773885498046875000e+02
8.774746704101562500e+02
8.773937377929687500e+02
8.769242553710937500e+02
8.761237792968750000e+02
8.754689331054687500e+02
8.755006713867187500e+02
8.765207519531250000e+02
8.783886108398437500e+02
8.806572265625000000e+02
8.828135375976562500e+02
8.845800781250000000e+02
8.858732299804687500e+02
8.866313476562500000e+02
8.868356933593750000e+02
8.866262207031250000e+02
8.862391967773437500e+02
8.858824462890625000e+02
8.855726928710937500e+02
8.852239379882812500e+02
8.847986450195312500e+02
8.843391113281250000e+02
8.839567871093750000e+02
8.837662353515625000e+02
8.837368774414062500e+02
8.837283325195312500e+02
8.837570190429687500e+02
8.840198974609375000e+02
8.845782470703125000e+02
8.853642578125000000e+02
8.861594848632812500e+02
8.866348266601562500e+02
8.864774169921875000e+02
8.856777954101562500e+02
8.850001220703125000e+02
8.862965087890625000e+02
8.920935058593750000e+02
9.043982543945312500e+02
9.233932495117187500e+02
9.468376464843750000e+02
9.707698364257812500e+02
9.910759887695312500e+02
1.004828430175781250e+03
1.010724792480468750e+03
1.008914367675781250e+03
1.000229003906250000e+03
9.857802734375000000e+02
9.669935913085937500e+02
9.459177246093750000e+02
9.252756958007812500e+02
9.079014892578125000e+02
8.958580322265625000e+02
8.895297851562500000e+02
8.876600341796875000e+02
8.882458496093750000e+02
8.896457519531250000e+02
8.911633911132812500e+02
8.927088012695312500e+02
8.941486206054687500e+02
8.951939086914062500e+02
8.956024780273437500e+02
8.954724731445312500e+02
8.952153930664062500e+02
8.951843872070312500e+02
8.951999511718750000e+02
8.941314697265625000e+02
8.899119262695312500e+02
8.802953491210937500e+02
8.655936889648437500e+02
8.522405395507812500e+02
8.539515380859375000e+02
8.879631958007812500e+02
9.654746093750000000e+02
1.080745117187500000e+03
1.207058105468750000e+03
1.305171386718750000e+03
1.340814819335937500e+03
1.301652587890625000e+03
1.203234497070312500e+03
1.080429687500000000e+03
9.701071166992187500e+02
8.955910034179687500e+02
8.608040771484375000e+02
8.552885131835937500e+02
8.638631591796875000e+02
8.744448852539062500e+02
8.812811889648437500e+02
8.838145141601562500e+02
8.838002319335937500e+02
8.830298461914062500e+02
8.826592407226562500e+02
8.829148559570312500e+02
8.834897460937500000e+02
8.839660644531250000e+02
8.841689453125000000e+02
8.842893676757812500e+02
8.846267700195312500e+02
8.853709716796875000e+02
8.865658569335937500e+02
8.881263427734375000e+02
8.898655395507812500e+02
8.913621215820312500e+02
8.921495361328125000e+02
8.919049682617187500e+02
8.906599731445312500e+02
8.888374633789062500e+02
8.871423950195312500e+02
8.866088867187500000e+02
8.885925903320312500e+02
8.944567871093750000e+02
9.051293945312500000e+02
9.204846191406250000e+02
9.395367431640625000e+02
9.609291381835937500e+02
9.835488281250000000e+02
1.006688720703125000e+03
1.029660400390625000e+03
1.051462158203125000e+03
1.070817993164062500e+03
1.086939819335937500e+03
1.099913330078125000e+03
1.110552124023437500e+03
1.119601806640625000e+03
1.127218505859375000e+03
1.132898925781250000e+03
1.135839233398437500e+03
1.135204956054687500e+03
1.130382446289062500e+03
1.120998657226562500e+03
1.106961425781250000e+03
1.088770629882812500e+03
1.066927124023437500e+03
1.041521362304687500e+03
1.012400939941406250e+03
9.801430664062500000e+02
9.468839721679687500e+02
9.162733154296875000e+02
8.919307250976562500e+02
8.759358520507812500e+02
8.680617675781250000e+02
8.662138061523437500e+02
8.677593994140625000e+02
8.704368896484375000e+02
8.727886352539062500e+02
8.741544189453125000e+02
8.746824340820312500e+02
8.746931152343750000e+02
8.745498657226562500e+02
8.745825805664062500e+02
8.751314086914062500e+02
8.764528198242187500e+02
8.785095214843750000e+02
8.806650390625000000e+02
8.820717773437500000e+02
8.822110595703125000e+02
8.813339843750000000e+02
8.804185791015625000e+02
8.804487304687500000e+02
8.817598266601562500e+02
8.839205932617187500e+02
8.861499633789062500e+02
8.878687744140625000e+02
8.889726562500000000e+02
8.895769042968750000e+02
8.897401123046875000e+02
8.894821777343750000e+02
8.888363037109375000e+02
8.879228515625000000e+02
8.870363159179687500e+02
8.863827514648437500e+02
8.860220336914062500e+02
8.860240478515625000e+02
8.866316528320312500e+02
8.881098022460937500e+02
8.904096679687500000e+02
8.930092773437500000e+02
8.950646362304687500e+02
8.959429321289062500e+02
8.955349731445312500e+02
8.942151489257812500e+02
8.924817504882812500e+02
8.905418701171875000e+02
8.883920898437500000e+02
8.863054809570312500e+02
8.852871704101562500e+02
8.871918945312500000e+02
8.941635742187500000e+02
9.074455566406250000e+02
9.265113525390625000e+02
9.489293212890625000e+02
9.713107299804687500e+02
9.904121093750000000e+02
1.003946472167968750e+03
1.010567871093750000e+03
1.009566101074218750e+03
1.000797973632812500e+03
9.850188598632812500e+02
9.643650512695312500e+02
9.421951293945312500e+02
9.220863647460937500e+02
9.066015625000000000e+02
8.966736450195312500e+02
8.916260375976562500e+02
8.899111938476562500e+02
8.898718261718750000e+02
8.904554443359375000e+02
8.912691650390625000e+02
8.922455444335937500e+02
8.933160400390625000e+02
8.943728027343750000e+02
8.951751708984375000e+02
8.955157470703125000e+02
8.954698486328125000e+02
8.953123779296875000e+02
8.950521850585937500e+02
8.937021484375000000e+02
8.890755615234375000e+02
8.791158447265625000e+02
8.651853027343750000e+02
8.557066650390625000e+02
8.662456054687500000e+02
9.137775878906250000e+02
1.005706604003906250e+03
1.129887817382812500e+03
1.253941284179687500e+03
1.337304199218750000e+03
1.350211791992187500e+03
1.288559204101562500e+03
1.175637451171875000e+03
1.049802856445312500e+03
9.460430297851562500e+02
8.823065185546875000e+02
8.571370239257812500e+02
8.569805297851562500e+02
8.665194091796875000e+02
8.754887695312500000e+02
8.804202880859375000e+02
8.822665405273437500e+02
8.829977416992187500e+02
8.838100585937500000e+02
8.849848632812500000e+02
8.861682739257812500e+02
8.868591308593750000e+02
8.867574462890625000e+02
8.859211425781250000e+02
8.847828369140625000e+02
8.838962402343750000e+02
8.837258911132812500e+02
8.843894042968750000e+02
8.857289428710937500e+02
8.873770141601562500e+02
8.889295043945312500e+02
8.900700683593750000e+02
8.905758056640625000e+02
8.905637817382812500e+02
8.904673461914062500e+02
8.908881835937500000e+02
8.925249023437500000e+02
8.963377075195312500e+02
9.035052490234375000e+02
9.150603637695312500e+02
9.312681274414062500e+02
9.514539184570312500e+02
9.740542602539062500e+02
9.972526855468750000e+02
1.019598449707031250e+03
1.040328857421875000e+03
1.059011230468750000e+03
1.075405029296875000e+03
1.089610107421875000e+03
1.101950561523437500e+03
1.112707031250000000e+03
1.121759643554687500e+03
1.128637573242187500e+03
1.132804443359375000e+03
1.133921142578125000e+03
1.131715087890625000e+03
1.125809692382812500e+03
1.115583129882812500e+03
1.100544677734375000e+03
1.080808715820312500e+03
1.057253906250000000e+03
1.031119140625000000e+03
1.003638000488281250e+03
9.758549194335937500e+02
9.488724365234375000e+02
9.241409912109375000e+02
9.033171997070312500e+02
8.877287597656250000e+02
8.778422851562500000e+02
8.730673217773437500e+02
8.719331665039062500e+02
8.726572265625000000e+02
8.738449707031250000e+02
8.748024291992187500e+02
8.754022827148437500e+02
8.758358764648437500e+02
8.764226684570312500e+02
8.773376464843750000e+02
8.784827880859375000e+02
8.794787597656250000e+02
8.799638061523437500e+02
8.799104003906250000e+02
8.795391845703125000e+02
8.790957641601562500e+02
8.788109130859375000e+02
8.787268066406250000e+02
8.788153076171875000e+02
8.791978149414062500e+02
8.800841064453125000e+02
8.815160522460937500e+02
8.833238525390625000e+02
8.852192382812500000e+02
8.870708618164062500e+02
8.889099731445312500e+02
8.906981811523437500e+02
8.921967773437500000e+02
8.929791870117187500e+02
8.926496582031250000e+02
8.911666870117187500e+02
8.890370483398437500e+02
8.869570922851562500e+02
8.854559936523437500e+02
8.846618041992187500e+02
8.844208374023437500e+02
8.846419677734375000e+02
8.854506835937500000e+02
8.869362182617187500e+02
8.889754638671875000e+02
8.911108398437500000e+02
8.927258300781250000e+02
8.932861938476562500e+02
8.925576782226562500e+02
8.907552490234375000e+02
8.887799072265625000e+02
8.883363647460937500e+02
8.917800292968750000e+02
9.011657104492187500e+02
9.170500488281250000e+02
9.380317993164062500e+02
9.611296386718750000e+02
9.829902343750000000e+02
1.000662780761718750e+03
1.012072326660156250e+03
1.015935852050781250e+03
1.011719421386718750e+03
9.997505493164062500e+02
9.815132446289062500e+02
9.597211914062500000e+02
9.377445678710937500e+02
9.186275024414062500e+02
9.043677978515625000e+02
8.955602416992187500e+02
8.914727783203125000e+02
8.905684204101562500e+02
8.911709594726562500e+02
8.921386108398437500e+02
8.927850952148437500e+02
8.928937377929687500e+02
8.925428466796875000e+02
8.919929199218750000e+02
8.915240478515625000e+02
8.913905639648437500e+02
8.918692016601562500e+02
8.930519409179687500e+02
8.943787841796875000e+02
8.941841430664062500e+02
8.898494873046875000e+02
8.795689086914062500e+02
8.662358398437500000e+02
8.605413208007812500e+02
8.794765014648437500e+02
9.386985473632812500e+02
1.040876831054687500e+03
1.167603027343750000e+03
1.282646240234375000e+03
1.346877563476562500e+03
1.337160522460937500e+03
1.257885131835937500e+03
1.138129150390625000e+03
1.016605468750000000e+03
9.239786987304687500e+02
8.723526000976562500e+02
8.560518798828125000e+02
8.603486938476562500e+02
8.709373779296875000e+02
8.792556152343750000e+02
8.830531005859375000e+02
8.835714721679687500e+02
8.826805419921875000e+02
8.817112426757812500e+02
8.811879272460937500e+02
8.811434936523437500e+02
8.814114990234375000e+02
8.818543090820312500e+02
8.824004516601562500e+02
8.830382690429687500e+02
8.837160034179687500e+02
8.842915649414062500e+02
8.846744995117187500e+02
8.850103759765625000e+02
8.855604858398437500e+02
8.864732055664062500e+02
8.876984863281250000e+02
8.890125122070312500e+02
8.902597045898437500e+02
8.913772583007812500e+02
8.925134277343750000e+02
8.941928710937500000e+02
8.976055297851562500e+02
9.045758056640625000e+02
9.167622070312500000e+02
9.345455322265625000e+02
9.566612548828125000e+02
9.807971191406250000e+02
1.004820800781250000e+03
1.027432495117187500e+03
1.047932006835937500e+03
1.065877929687500000e+03
1.080997436523437500e+03
1.093525512695312500e+03
1.104262084960937500e+03
1.114042358398437500e+03
1.123046264648437500e+03
1.130538330078125000e+03
1.135349609375000000e+03
1.136356811523437500e+03
1.132651611328125000e+03
1.123650268554687500e+03
1.109108642578125000e+03
1.089471191406250000e+03
1.065909179687500000e+03
1.039938110351562500e+03
1.012905578613281250e+03
9.856392211914062500e+02
9.586519165039062500e+02
9.326955566406250000e+02
9.091738891601562500e+02
8.899097900390625000e+02
8.762612915039062500e+02
8.684474487304687500e+02
8.652930297851562500e+02
8.648483276367187500e+02
8.654869384765625000e+02
8.664573974609375000e+02
8.677839965820312500e+02
8.695723876953125000e+02
8.714752807617187500e+02
8.729362182617187500e+02
8.736707153320312500e+02
8.738937377929687500e+02
8.740958251953125000e+02
8.747359619140625000e+02
8.759226074218750000e+02
8.774379882812500000e+02
8.790089721679687500e+02
8.803827514648437500e+02
8.814428710937500000e+02
8.822830810546875000e+02
8.831416625976562500e+02
8.842194213867187500e+02
8.854144287109375000e+02
8.863657836914062500e+02
8.867614746093750000e+02
8.865311889648437500e+02
8.858387451171875000e+02
8.849729614257812500e+02
8.842894287109375000e+02
8.840375976562500000e+02
8.843759155273437500e+02
8.853111572265625000e+02
8.865548706054687500e+02
8.875990600585937500e+02
8.880869140625000000e+02
8.880435791015625000e+02
8.878559570312500000e+02
8.879670410156250000e+02
8.886520385742187500e+02
8.897949829101562500e+02
8.910676879882812500e+02
8.921264648437500000e+02
8.927139892578125000e+02
8.926945800781250000e+02
8.921685791015625000e+02
8.915349731445312500e+02
8.916325683593750000e+02
8.937369384765625000e+02
8.993825073242187500e+02
9.098131103515625000e+02
9.253345336914062500e+02
9.451536254882812500e+02
9.673153686523437500e+02
9.890276489257812500e+02
1.006910461425781250e+03
1.017796630859375000e+03
1.019560302734375000e+03
1.011733764648437500e+03
9.955345458984375000e+02
9.735935668945312500e+02
9.492622680664062500e+02
9.259260864257812500e+02
9.064169921875000000e+02
8.925213012695312500e+02
8.845433349609375000e+02
8.813875732421875000e+02
8.812549438476562500e+02
8.824739379882812500e+02
8.841741333007812500e+02
8.860884399414062500e+02
8.881026611328125000e+02
8.900093383789062500e+02
8.915430908203125000e+02
8.925039672851562500e+02
8.930994873046875000e+02
8.937733764648437500e+02
8.947461547851562500e+02
8.952871093750000000e+02
8.932857055664062500e+02
8.858869628906250000e+02
8.722987670898437500e+02
8.579247436523437500e+02
8.562097167968750000e+02
8.851343383789062500e+02
9.577312011718750000e+02
1.070625732421875000e+03
1.198815917968750000e+03
1.302933471679687500e+03
1.346568969726562500e+03
1.314190063476562500e+03
1.218631835937500000e+03
1.094011718750000000e+03
9.786406860351562500e+02
8.986007690429687500e+02
8.601909790039062500e+02
8.535963134765625000e+02
8.626882324218750000e+02
8.738854370117187500e+02
8.804801025390625000e+02
8.820629882812500000e+02
8.811307373046875000e+02
8.799318237304687500e+02
8.795072021484375000e+02
8.798532104492187500e+02
8.806426391601562500e+02
8.816915893554687500e+02
8.829072875976562500e+02
8.841626586914062500e+02
8.851758422851562500e+02
8.856477050781250000e+02
8.854782714843750000e+02
8.849204711914062500e+02
8.844501342773437500e+02
8.845437622070312500e+02
8.854008789062500000e+02
8.868524169921875000e+02
8.882631835937500000e+02
8.890191040039062500e+02
8.889394531250000000e+02
8.887190551757812500e+02
8.900031127929687500e+02
8.948578491210937500e+02
9.049833374023437500e+02
9.207304077148437500e+02
9.410416870117187500e+02
9.638908081054687500e+02
9.872352294921875000e+02
