9.680340000000000000e+05
9.674040000000000000e+05
9.681970000000000000e+05
9.675150000000000000e+05
9.671180000000000000e+05
9.679730000000000000e+05
9.677900000000000000e+05
9.670830000000000000e+05
9.676040000000000000e+05
9.680730000000000000e+05
9.673810000000000000e+05
9.681270000000000000e+05
9.673650000000000000e+05
9.671220000000000000e+05
9.678900000000000000e+05
9.678390000000000000e+05
9.671010000000000000e+05
9.676120000000000000e+05
9.680940000000000000e+05
9.673500000000000000e+05
9.680750000000000000e+05
9.675720000000000000e+05
9.671130000000000000e+05
9.678810000000000000e+05
9.678640000000000000e+05
9.670970000000000000e+05
9.675660000000000000e+05
9.680990000000000000e+05
9.672780000000000000e+05
9.682030000000000000e+05
9.675530000000000000e+05
9.671160000000000000e+05
9.678360000000000000e+05
9.678920000000000000e+05
9.671270000000000000e+05
9.681530000000000000e+05
9.671430000000000000e+05
9.672640000000000000e+05
9.681370000000000000e+05
9.675870000000000000e+05
9.671110000000000000e+05
9.678380000000000000e+05
9.679010000000000000e+05
9.675290000000000000e+05
9.680230000000000000e+05
9.674510000000000000e+05
9.672200000000000000e+05
9.681390000000000000e+05
9.676240000000000000e+05
9.670860000000000000e+05
9.677450000000000000e+05
9.679700000000000000e+05
9.674900000000000000e+05
9.680980000000000000e+05
9.670850000000000000e+05
9.671880000000000000e+05
9.680780000000000000e+05
9.676840000000000000e+05
9.670840000000000000e+05
9.677650000000000000e+05
9.679600000000000000e+05
9.674400000000000000e+05
9.679870000000000000e+05
9.673470000000000000e+05
9.671780000000000000e+05
9.680670000000000000e+05
9.677070000000000000e+05
9.670510000000000000e+05
9.676820000000000000e+05
9.679970000000000000e+05
9.674330000000000000e+05
9.681790000000000000e+05
9.673860000000000000e+05
9.671650000000000000e+05
9.680100000000000000e+05
9.677600000000000000e+05
9.671210000000000000e+05
9.676790000000000000e+05
9.671480000000000000e+05
9.673770000000000000e+05
9.682770000000000000e+05
9.674240000000000000e+05
9.671240000000000000e+05
9.679880000000000000e+05
9.677890000000000000e+05
9.670760000000000000e+05
9.676200000000000000e+05
9.671930000000000000e+05
9.672290000000000000e+05
9.680280000000000000e+05
9.674630000000000000e+05
9.670830000000000000e+05
9.679360000000000000e+05
9.678290000000000000e+05
9.670990000000000000e+05
9.676190000000000000e+05
9.671850000000000000e+05
9.672140000000000000e+05
9.681740000000000000e+05
9.675010000000000000e+05
9.671070000000000000e+05
9.679090000000000000e+05
9.678750000000000000e+05
9.670980000000000000e+05
9.675700000000000000e+05
9.672610000000000000e+05
9.671630000000000000e+05
9.681500000000000000e+05
9.675370000000000000e+05
9.671300000000000000e+05
9.678520000000000000e+05
9.678800000000000000e+05
9.670960000000000000e+05
9.681090000000000000e+05
9.671010000000000000e+05
9.673570000000000000e+05
9.681110000000000000e+05
9.675930000000000000e+05
9.671080000000000000e+05
9.678540000000000000e+05
9.679220000000000000e+05
9.670960000000000000e+05
9.680970000000000000e+05
9.672140000000000000e+05
9.671420000000000000e+05
9.681420000000000000e+05
9.676510000000000000e+05
9.671180000000000000e+05
9.678040000000000000e+05
9.679850000000000000e+05
9.671250000000000000e+05
9.681700000000000000e+05
9.672190000000000000e+05
9.672180000000000000e+05
9.681040000000000000e+05
9.676780000000000000e+05
9.671310000000000000e+05
9.677760000000000000e+05
9.679710000000000000e+05
9.671030000000000000e+05
9.681330000000000000e+05
9.671970000000000000e+05
9.671760000000000000e+05
9.680600000000000000e+05
9.676890000000000000e+05
9.670830000000000000e+05
9.677510000000000000e+05
9.680010000000000000e+05
9.674630000000000000e+05
9.680640000000000000e+05
9.673840000000000000e+05
9.671710000000000000e+05
9.680250000000000000e+05
9.677140000000000000e+05
9.671310000000000000e+05
9.676900000000000000e+05
9.680000000000000000e+05
9.674620000000000000e+05
9.680680000000000000e+05
9.672440000000000000e+05
9.671780000000000000e+05
9.679850000000000000e+05
9.677790000000000000e+05
9.670600000000000000e+05
9.676820000000000000e+05
9.680720000000000000e+05
9.673880000000000000e+05
9.680430000000000000e+05
9.674250000000000000e+05
9.671380000000000000e+05
9.679560000000000000e+05
9.678030000000000000e+05
9.670940000000000000e+05
9.676500000000000000e+05
9.680810000000000000e+05
9.673650000000000000e+05
9.680580000000000000e+05
9.674820000000000000e+05
9.671400000000000000e+05
9.679500000000000000e+05
9.678190000000000000e+05
9.671190000000000000e+05
9.675930000000000000e+05
9.671980000000000000e+05
9.673980000000000000e+05
9.681800000000000000e+05
9.675180000000000000e+05
9.670900000000000000e+05
9.678920000000000000e+05
9.678730000000000000e+05
9.671510000000000000e+05
9.675640000000000000e+05
9.672100000000000000e+05
9.672290000000000000e+05
9.680170000000000000e+05
9.675740000000000000e+05
9.671040000000000000e+05
9.678800000000000000e+05
9.679040000000000000e+05
9.671630000000000000e+05
9.675540000000000000e+05
9.672570000000000000e+05
9.672560000000000000e+05
9.681700000000000000e+05
9.675930000000000000e+05
9.671000000000000000e+05
9.678340000000000000e+05
9.679450000000000000e+05
9.671010000000000000e+05
9.675080000000000000e+05
9.672870000000000000e+05
9.672070000000000000e+05
9.681180000000000000e+05
9.676510000000000000e+05
9.671100000000000000e+05
9.677940000000000000e+05
9.679670000000000000e+05
9.671070000000000000e+05
9.680940000000000000e+05
9.673410000000000000e+05
9.673600000000000000e+05
9.681090000000000000e+05
9.676940000000000000e+05
9.671030000000000000e+05
9.677490000000000000e+05
9.679900000000000000e+05
9.671640000000000000e+05
9.681480000000000000e+05
9.671820000000000000e+05
9.671020000000000000e+05
9.680490000000000000e+05
9.677310000000000000e+05
9.670830000000000000e+05
9.677470000000000000e+05
9.680000000000000000e+05
9.671490000000000000e+05
9.681410000000000000e+05
9.674190000000000000e+05
9.671340000000000000e+05
9.680280000000000000e+05
9.677750000000000000e+05
9.671190000000000000e+05
9.676680000000000000e+05
9.680320000000000000e+05
9.671830000000000000e+05
9.681530000000000000e+05
9.673260000000000000e+05
9.671320000000000000e+05
9.679720000000000000e+05
9.677960000000000000e+05
9.670690000000000000e+05
9.676700000000000000e+05
9.680610000000000000e+05
9.674020000000000000e+05
9.681330000000000000e+05
9.676030000000000000e+05
9.671670000000000000e+05
9.679620000000000000e+05
9.678290000000000000e+05
9.670990000000000000e+05
9.676290000000000000e+05
9.680830000000000000e+05
9.673640000000000000e+05
9.681080000000000000e+05
9.674040000000000000e+05
9.671080000000000000e+05
9.679180000000000000e+05
9.678820000000000000e+05
9.671150000000000000e+05
9.675920000000000000e+05
9.681030000000000000e+05
9.673350000000000000e+05
9.681240000000000000e+05
9.675470000000000000e+05
9.670960000000000000e+05
9.679030000000000000e+05
9.678500000000000000e+05
9.671060000000000000e+05
9.675330000000000000e+05
9.680810000000000000e+05
9.672760000000000000e+05
9.680580000000000000e+05
9.675750000000000000e+05
9.670800000000000000e+05
9.678800000000000000e+05
9.679280000000000000e+05
9.671120000000000000e+05
9.675460000000000000e+05
9.672520000000000000e+05
9.673100000000000000e+05
9.681420000000000000e+05
9.676320000000000000e+05
9.671200000000000000e+05
9.677900000000000000e+05
9.679290000000000000e+05
9.671400000000000000e+05
9.675210000000000000e+05
9.673120000000000000e+05
9.672040000000000000e+05
9.679870000000000000e+05
9.676490000000000000e+05
9.671020000000000000e+05
9.677610000000000000e+05
9.679870000000000000e+05
9.671560000000000000e+05
9.674810000000000000e+05
9.673090000000000000e+05
9.671430000000000000e+05
9.680700000000000000e+05
9.677270000000000000e+05
9.671080000000000000e+05
9.677540000000000000e+05
9.679890000000000000e+05
9.671120000000000000e+05
9.674280000000000000e+05
9.673570000000000000e+05
9.671600000000000000e+05
9.680880000000000000e+05
9.677180000000000000e+05
9.671000000000000000e+05
9.677080000000000000e+05
9.680430000000000000e+05
9.671960000000000000e+05
9.681210000000000000e+05
9.672560000000000000e+05
9.673280000000000000e+05
9.680010000000000000e+05
9.677600000000000000e+05
9.671140000000000000e+05
9.676790000000000000e+05
9.680010000000000000e+05
9.671760000000000000e+05
9.681780000000000000e+05
9.673690000000000000e+05
9.670580000000000000e+05
9.679970000000000000e+05
9.677830000000000000e+05
9.670810000000000000e+05
9.676330000000000000e+05
9.680840000000000000e+05
9.671930000000000000e+05
9.681370000000000000e+05
9.675310000000000000e+05
9.671360000000000000e+05
9.679240000000000000e+05
9.678250000000000000e+05
9.671290000000000000e+05
9.676410000000000000e+05
9.681000000000000000e+05
9.671690000000000000e+05
9.681200000000000000e+05
9.675350000000000000e+05
9.671150000000000000e+05
9.679270000000000000e+05
9.678230000000000000e+05
9.670930000000000000e+05
9.675930000000000000e+05
9.680690000000000000e+05
9.673090000000000000e+05
9.680990000000000000e+05
9.677200000000000000e+05
9.670820000000000000e+05
9.678510000000000000e+05
9.678800000000000000e+05
9.671530000000000000e+05
9.675430000000000000e+05
9.680990000000000000e+05
9.672760000000000000e+05
9.682480000000000000e+05
9.675050000000000000e+05
9.671090000000000000e+05
9.678660000000000000e+05
9.679090000000000000e+05
9.671030000000000000e+05
9.675330000000000000e+05
9.681030000000000000e+05
9.672340000000000000e+05
9.682740000000000000e+05
9.676290000000000000e+05
9.670790000000000000e+05
9.677820000000000000e+05
9.679170000000000000e+05
9.671350000000000000e+05
9.674980000000000000e+05
9.681410000000000000e+05
9.671880000000000000e+05
9.681150000000000000e+05
9.676700000000000000e+05
9.670960000000000000e+05
9.677440000000000000e+05
9.679580000000000000e+05
9.671210000000000000e+05
9.674740000000000000e+05
9.673730000000000000e+05
9.671150000000000000e+05
9.680750000000000000e+05
9.676990000000000000e+05
9.670780000000000000e+05
9.677100000000000000e+05
9.679970000000000000e+05
9.671540000000000000e+05
9.674310000000000000e+05
9.673670000000000000e+05
9.673090000000000000e+05
9.679920000000000000e+05
9.677500000000000000e+05
9.670980000000000000e+05
9.676970000000000000e+05
9.680300000000000000e+05
9.671680000000000000e+05
9.674220000000000000e+05
9.673760000000000000e+05
9.671080000000000000e+05
9.680000000000000000e+05
9.677800000000000000e+05
9.670950000000000000e+05
9.676310000000000000e+05
9.680420000000000000e+05
9.671590000000000000e+05
9.673940000000000000e+05
9.674360000000000000e+05
9.672580000000000000e+05
9.679520000000000000e+05
9.678000000000000000e+05
9.671210000000000000e+05
9.676660000000000000e+05
9.680580000000000000e+05
9.671930000000000000e+05
9.681550000000000000e+05
9.672450000000000000e+05
9.670890000000000000e+05
9.679470000000000000e+05
9.678440000000000000e+05
9.670960000000000000e+05
9.676130000000000000e+05
9.680930000000000000e+05
9.672220000000000000e+05
9.681850000000000000e+05
9.674820000000000000e+05
9.671320000000000000e+05
9.678930000000000000e+05
9.679020000000000000e+05
9.670840000000000000e+05
9.675520000000000000e+05
9.681280000000000000e+05
9.672140000000000000e+05
9.681390000000000000e+05
9.674270000000000000e+05
9.670750000000000000e+05
9.678960000000000000e+05
9.678870000000000000e+05
9.670860000000000000e+05
9.675260000000000000e+05
9.681100000000000000e+05
9.672230000000000000e+05
9.681750000000000000e+05
9.676500000000000000e+05
9.670830000000000000e+05
9.678240000000000000e+05
9.679130000000000000e+05
9.671390000000000000e+05
9.674620000000000000e+05
9.680990000000000000e+05
9.672230000000000000e+05
9.679740000000000000e+05
9.674140000000000000e+05
9.671060000000000000e+05
9.678050000000000000e+05
9.679520000000000000e+05
9.671090000000000000e+05
9.674930000000000000e+05
9.681490000000000000e+05
9.671830000000000000e+05
9.681530000000000000e+05
9.676140000000000000e+05
9.670850000000000000e+05
9.677540000000000000e+05
9.679970000000000000e+05
9.671490000000000000e+05
9.674480000000000000e+05
9.681800000000000000e+05
9.671750000000000000e+05
9.678850000000000000e+05
9.677130000000000000e+05
9.670790000000000000e+05
9.677240000000000000e+05
9.679950000000000000e+05
9.671100000000000000e+05
9.674510000000000000e+05
9.673700000000000000e+05
9.671750000000000000e+05
9.680400000000000000e+05
9.677640000000000000e+05
9.670800000000000000e+05
9.676480000000000000e+05
9.680580000000000000e+05
9.671590000000000000e+05
9.674180000000000000e+05
9.673950000000000000e+05
9.668740000000000000e+05
9.678520000000000000e+05
9.677910000000000000e+05
9.671240000000000000e+05
9.676580000000000000e+05
9.680410000000000000e+05
9.671560000000000000e+05
9.673900000000000000e+05
9.674500000000000000e+05
9.670340000000000000e+05
9.680320000000000000e+05
9.678190000000000000e+05
9.671120000000000000e+05
9.676160000000000000e+05
9.680650000000000000e+05
9.672280000000000000e+05
9.673310000000000000e+05
9.674960000000000000e+05
9.670010000000000000e+05
9.679100000000000000e+05
9.678820000000000000e+05
9.670830000000000000e+05
9.675770000000000000e+05
9.681190000000000000e+05
9.671870000000000000e+05
9.681360000000000000e+05
9.674660000000000000e+05
9.671980000000000000e+05
9.678790000000000000e+05
9.678750000000000000e+05
9.670770000000000000e+05
9.675360000000000000e+05
9.680880000000000000e+05
9.672210000000000000e+05
9.681540000000000000e+05
9.674860000000000000e+05
9.670580000000000000e+05
9.678400000000000000e+05
9.678780000000000000e+05
9.671300000000000000e+05
9.674950000000000000e+05
9.681010000000000000e+05
9.672620000000000000e+05
9.680800000000000000e+05
9.674910000000000000e+05
9.671420000000000000e+05
9.678040000000000000e+05
9.679230000000000000e+05
9.670920000000000000e+05
9.674480000000000000e+05
9.681270000000000000e+05
9.672700000000000000e+05
9.680950000000000000e+05
9.674830000000000000e+05
9.670610000000000000e+05
9.677660000000000000e+05
9.679580000000000000e+05
9.671390000000000000e+05
9.674670000000000000e+05
9.681320000000000000e+05
9.672030000000000000e+05
9.680460000000000000e+05
9.676550000000000000e+05
9.670830000000000000e+05
9.677590000000000000e+05
9.679760000000000000e+05
9.671430000000000000e+05
9.674370000000000000e+05
9.681220000000000000e+05
9.671370000000000000e+05
9.679490000000000000e+05
9.675430000000000000e+05
9.670800000000000000e+05
9.677040000000000000e+05
9.680060000000000000e+05
9.671680000000000000e+05
9.674340000000000000e+05
9.681540000000000000e+05
9.671350000000000000e+05
9.678690000000000000e+05
9.677620000000000000e+05
9.671000000000000000e+05
9.676690000000000000e+05
9.680280000000000000e+05
9.671650000000000000e+05
9.673800000000000000e+05
9.681390000000000000e+05
9.671060000000000000e+05
9.679220000000000000e+05
9.677980000000000000e+05
9.670820000000000000e+05
9.676260000000000000e+05
9.680710000000000000e+05
9.671740000000000000e+05
9.673680000000000000e+05
9.674590000000000000e+05
9.671050000000000000e+05
9.679590000000000000e+05
9.678220000000000000e+05
9.670890000000000000e+05
9.676260000000000000e+05
9.680870000000000000e+05
9.671810000000000000e+05
9.673350000000000000e+05
9.675170000000000000e+05
9.672760000000000000e+05
9.678800000000000000e+05
9.678430000000000000e+05
9.671010000000000000e+05
9.675660000000000000e+05
9.680750000000000000e+05
9.672330000000000000e+05
9.673070000000000000e+05
9.675450000000000000e+05
9.672200000000000000e+05
9.678850000000000000e+05
9.679110000000000000e+05
9.671420000000000000e+05
9.675630000000000000e+05
9.681120000000000000e+05
9.672470000000000000e+05
9.681280000000000000e+05
9.676010000000000000e+05
9.672130000000000000e+05
9.678290000000000000e+05
9.678920000000000000e+05
9.671060000000000000e+05
9.675260000000000000e+05
9.681070000000000000e+05
9.672670000000000000e+05
9.681330000000000000e+05
9.675110000000000000e+05
9.668890000000000000e+05
9.677620000000000000e+05
9.679250000000000000e+05
9.671380000000000000e+05
9.675070000000000000e+05
9.681240000000000000e+05
9.672810000000000000e+05
9.680850000000000000e+05
9.675220000000000000e+05
9.670840000000000000e+05
9.677880000000000000e+05
9.679600000000000000e+05
9.671060000000000000e+05
9.674600000000000000e+05
9.681290000000000000e+05
9.673220000000000000e+05
9.680580000000000000e+05
9.675940000000000000e+05
9.670780000000000000e+05
9.677010000000000000e+05
9.679790000000000000e+05
9.671290000000000000e+05
9.674770000000000000e+05
9.681540000000000000e+05
9.671540000000000000e+05
9.679340000000000000e+05
9.678670000000000000e+05
9.671080000000000000e+05
9.677040000000000000e+05
9.679960000000000000e+05
9.671120000000000000e+05
9.673760000000000000e+05
9.681560000000000000e+05
9.671510000000000000e+05
9.678890000000000000e+05
9.676070000000000000e+05
9.670670000000000000e+05
9.676490000000000000e+05
9.680570000000000000e+05
9.671810000000000000e+05
9.674050000000000000e+05
9.681540000000000000e+05
9.671050000000000000e+05
9.678440000000000000e+05
9.677990000000000000e+05
9.671050000000000000e+05
9.676250000000000000e+05
9.680560000000000000e+05
9.671700000000000000e+05
9.673590000000000000e+05
9.681350000000000000e+05
9.671090000000000000e+05
9.678360000000000000e+05
9.678190000000000000e+05
9.670960000000000000e+05
9.675970000000000000e+05
9.680880000000000000e+05
9.671860000000000000e+05
9.673300000000000000e+05
9.674900000000000000e+05
9.670150000000000000e+05
9.680460000000000000e+05
9.678730000000000000e+05
9.671060000000000000e+05
9.676040000000000000e+05
9.680700000000000000e+05
9.672280000000000000e+05
9.672850000000000000e+05
9.675330000000000000e+05
9.671420000000000000e+05
9.678090000000000000e+05
9.679160000000000000e+05
9.670690000000000000e+05
9.675390000000000000e+05
9.680920000000000000e+05
9.672410000000000000e+05
9.672740000000000000e+05
9.675950000000000000e+05
9.671590000000000000e+05
9.678150000000000000e+05
9.679130000000000000e+05
9.671130000000000000e+05
9.675200000000000000e+05
9.680960000000000000e+05
9.672550000000000000e+05
9.672210000000000000e+05
9.676100000000000000e+05
9.672300000000000000e+05
9.677960000000000000e+05
9.679200000000000000e+05
9.670960000000000000e+05
9.674890000000000000e+05
9.680960000000000000e+05
9.673410000000000000e+05
9.680680000000000000e+05
9.676830000000000000e+05
9.670820000000000000e+05
9.677300000000000000e+05
9.679580000000000000e+05
9.671530000000000000e+05
9.674500000000000000e+05
9.681140000000000000e+05
9.673230000000000000e+05
9.680370000000000000e+05
9.676690000000000000e+05
9.671030000000000000e+05
9.677290000000000000e+05
9.679870000000000000e+05
9.671270000000000000e+05
9.674250000000000000e+05
9.681540000000000000e+05
9.673560000000000000e+05
9.680100000000000000e+05
9.676410000000000000e+05
9.670880000000000000e+05
9.676440000000000000e+05
9.680320000000000000e+05
9.671580000000000000e+05
9.674160000000000000e+05
9.681260000000000000e+05
9.671010000000000000e+05
9.680330000000000000e+05
9.678580000000000000e+05
9.670840000000000000e+05
9.676680000000000000e+05
9.680520000000000000e+05
9.671660000000000000e+05
9.673920000000000000e+05
9.681150000000000000e+05
9.670880000000000000e+05
9.678580000000000000e+05
9.677100000000000000e+05
9.670560000000000000e+05
9.676260000000000000e+05
9.680880000000000000e+05
9.672200000000000000e+05
9.673400000000000000e+05
9.681430000000000000e+05
9.670520000000000000e+05
9.677840000000000000e+05
9.678810000000000000e+05
9.670970000000000000e+05
9.676010000000000000e+05
9.681020000000000000e+05
9.671760000000000000e+05
9.672780000000000000e+05
9.681380000000000000e+05
9.670900000000000000e+05
9.679430000000000000e+05
9.678810000000000000e+05
9.670640000000000000e+05
9.675450000000000000e+05
9.681190000000000000e+05
9.672230000000000000e+05
9.672740000000000000e+05
9.675680000000000000e+05
9.670150000000000000e+05
9.678050000000000000e+05
9.678890000000000000e+05
9.670810000000000000e+05
9.675410000000000000e+05
9.681370000000000000e+05
9.672380000000000000e+05
9.672520000000000000e+05
9.676400000000000000e+05
9.672630000000000000e+05
9.677500000000000000e+05
9.679380000000000000e+05
9.671050000000000000e+05
9.675060000000000000e+05
9.681080000000000000e+05
9.672990000000000000e+05
9.672110000000000000e+05
9.676200000000000000e+05
9.668840000000000000e+05
9.677630000000000000e+05
9.679550000000000000e+05
9.671340000000000000e+05
9.674600000000000000e+05
9.681090000000000000e+05
9.672960000000000000e+05
9.680490000000000000e+05
9.675860000000000000e+05
9.670990000000000000e+05
9.677480000000000000e+05
9.679520000000000000e+05
9.671090000000000000e+05
9.674460000000000000e+05
9.681210000000000000e+05
9.673520000000000000e+05
9.680460000000000000e+05
9.677900000000000000e+05
9.668360000000000000e+05
9.676800000000000000e+05
9.679970000000000000e+05
9.671500000000000000e+05
9.674410000000000000e+05
9.681380000000000000e+05
9.673970000000000000e+05
9.680160000000000000e+05
9.675860000000000000e+05
9.671390000000000000e+05
9.676640000000000000e+05
9.680360000000000000e+05
9.671100000000000000e+05
9.673730000000000000e+05
9.681190000000000000e+05
9.673990000000000000e+05
9.679620000000000000e+05
9.677310000000000000e+05
9.671180000000000000e+05
9.676340000000000000e+05
9.680670000000000000e+05
9.671450000000000000e+05
9.673570000000000000e+05
9.681260000000000000e+05
9.671060000000000000e+05
9.679250000000000000e+05
9.678850000000000000e+05
9.670860000000000000e+05
9.676010000000000000e+05
9.680880000000000000e+05
9.671470000000000000e+05
9.673030000000000000e+05
9.681330000000000000e+05
9.670750000000000000e+05
9.680270000000000000e+05
9.678330000000000000e+05
9.670950000000000000e+05
9.675760000000000000e+05
9.680740000000000000e+05
9.672240000000000000e+05
9.673040000000000000e+05
9.681310000000000000e+05
9.670850000000000000e+05
9.679130000000000000e+05
9.678830000000000000e+05
9.670900000000000000e+05
9.675470000000000000e+05
9.681320000000000000e+05
9.672460000000000000e+05
9.672650000000000000e+05
9.675720000000000000e+05
9.671650000000000000e+05
9.679130000000000000e+05
9.679190000000000000e+05
9.670840000000000000e+05
9.675250000000000000e+05
9.680800000000000000e+05
9.672630000000000000e+05
9.672180000000000000e+05
9.676070000000000000e+05
9.669150000000000000e+05
9.676220000000000000e+05
9.679010000000000000e+05
9.671300000000000000e+05
9.675070000000000000e+05
9.681730000000000000e+05
9.672680000000000000e+05
9.672050000000000000e+05
9.676290000000000000e+05
9.670860000000000000e+05
9.677370000000000000e+05
9.679400000000000000e+05
9.670990000000000000e+05
9.674750000000000000e+05
9.681360000000000000e+05
9.673000000000000000e+05
9.671550000000000000e+05
9.676910000000000000e+05
9.669890000000000000e+05
9.677010000000000000e+05
9.679820000000000000e+05
9.671530000000000000e+05
9.674450000000000000e+05
9.681390000000000000e+05
9.673460000000000000e+05
9.680170000000000000e+05
9.677540000000000000e+05
9.672420000000000000e+05
9.677040000000000000e+05
9.679940000000000000e+05
9.671660000000000000e+05
9.673990000000000000e+05
9.681760000000000000e+05
9.673750000000000000e+05
9.679840000000000000e+05
9.676940000000000000e+05
9.670140000000000000e+05
9.676360000000000000e+05
9.680380000000000000e+05
9.671700000000000000e+05
9.673990000000000000e+05
9.681510000000000000e+05
9.674220000000000000e+05
9.678960000000000000e+05
9.677360000000000000e+05
9.670910000000000000e+05
9.676360000000000000e+05
9.680600000000000000e+05
9.672030000000000000e+05
9.673470000000000000e+05
9.681150000000000000e+05
9.671130000000000000e+05
9.679860000000000000e+05
9.680370000000000000e+05
9.670830000000000000e+05
9.675850000000000000e+05
9.680740000000000000e+05
9.671860000000000000e+05
9.673100000000000000e+05
9.681630000000000000e+05
9.670990000000000000e+05
9.677420000000000000e+05
9.677300000000000000e+05
9.671090000000000000e+05
9.675790000000000000e+05
9.681240000000000000e+05
9.671620000000000000e+05
9.672940000000000000e+05
9.681460000000000000e+05
9.671230000000000000e+05
9.679940000000000000e+05
9.678750000000000000e+05
9.670860000000000000e+05
9.675390000000000000e+05
9.680860000000000000e+05
9.672170000000000000e+05
9.672650000000000000e+05
