9.677200000000000000e+05
9.671000000000000000e+05
9.676090000000000000e+05
9.679580000000000000e+05
9.671400000000000000e+05
9.673680000000000000e+05
9.681570000000000000e+05
9.673620000000000000e+05
9.670990000000000000e+05
9.677620000000000000e+05
9.669500000000000000e+05
9.676100000000000000e+05
9.680550000000000000e+05
9.671570000000000000e+05
9.673090000000000000e+05
9.681440000000000000e+05
9.674540000000000000e+05
9.678890000000000000e+05
9.678490000000000000e+05
9.671450000000000000e+05
9.675770000000000000e+05
9.680480000000000000e+05
9.671680000000000000e+05
9.672680000000000000e+05
9.681540000000000000e+05
9.674870000000000000e+05
9.678790000000000000e+05
9.676670000000000000e+05
9.670310000000000000e+05
9.675430000000000000e+05
9.680920000000000000e+05
9.671700000000000000e+05
9.672360000000000000e+05
9.675420000000000000e+05
9.669290000000000000e+05
9.675810000000000000e+05
9.678780000000000000e+05
9.670660000000000000e+05
9.675150000000000000e+05
9.681190000000000000e+05
9.672150000000000000e+05
9.671900000000000000e+05
9.676010000000000000e+05
9.672120000000000000e+05
9.677670000000000000e+05
9.679260000000000000e+05
9.670800000000000000e+05
9.674720000000000000e+05
9.681450000000000000e+05
9.672370000000000000e+05
9.671610000000000000e+05
9.676170000000000000e+05
9.671360000000000000e+05
9.677510000000000000e+05
9.679600000000000000e+05
9.670900000000000000e+05
9.674280000000000000e+05
9.681270000000000000e+05
9.672970000000000000e+05
9.671310000000000000e+05
9.677090000000000000e+05
9.672240000000000000e+05
9.677160000000000000e+05
9.680050000000000000e+05
9.671050000000000000e+05
9.673830000000000000e+05
9.681280000000000000e+05
9.673380000000000000e+05
9.679760000000000000e+05
9.677100000000000000e+05
9.671870000000000000e+05
9.676160000000000000e+05
9.680500000000000000e+05
9.671370000000000000e+05
9.673560000000000000e+05
9.681070000000000000e+05
9.673950000000000000e+05
9.679430000000000000e+05
9.676620000000000000e+05
9.669330000000000000e+05
9.675900000000000000e+05
9.680400000000000000e+05
9.671430000000000000e+05
9.673180000000000000e+05
9.681350000000000000e+05
9.674490000000000000e+05
9.678720000000000000e+05
9.677790000000000000e+05
9.670610000000000000e+05
9.675860000000000000e+05
9.680580000000000000e+05
9.672120000000000000e+05
9.672700000000000000e+05
9.681290000000000000e+05
9.674790000000000000e+05
9.678840000000000000e+05
9.677950000000000000e+05
9.671010000000000000e+05
9.675440000000000000e+05
9.680840000000000000e+05
9.671710000000000000e+05
9.672790000000000000e+05
9.681090000000000000e+05
9.670750000000000000e+05
9.679040000000000000e+05
9.679920000000000000e+05
9.670680000000000000e+05
9.674920000000000000e+05
9.681310000000000000e+05
9.672400000000000000e+05
9.671790000000000000e+05
9.681060000000000000e+05
9.670660000000000000e+05
9.677090000000000000e+05
9.677850000000000000e+05
9.671000000000000000e+05
9.674320000000000000e+05
9.681480000000000000e+05
9.672480000000000000e+05
9.671720000000000000e+05
9.680210000000000000e+05
9.670580000000000000e+05
9.677490000000000000e+05
9.679810000000000000e+05
9.671040000000000000e+05
9.674090000000000000e+05
9.681000000000000000e+05
9.673130000000000000e+05
9.671270000000000000e+05
9.680220000000000000e+05
9.670400000000000000e+05
9.678180000000000000e+05
9.680300000000000000e+05
9.671430000000000000e+05
9.673600000000000000e+05
9.680800000000000000e+05
9.673680000000000000e+05
9.670920000000000000e+05
9.679810000000000000e+05
9.670710000000000000e+05
9.677050000000000000e+05
9.680430000000000000e+05
9.671360000000000000e+05
9.673470000000000000e+05
9.681280000000000000e+05
9.674090000000000000e+05
9.671100000000000000e+05
9.678110000000000000e+05
9.670910000000000000e+05
9.676160000000000000e+05
9.680990000000000000e+05
9.671620000000000000e+05
9.673300000000000000e+05
9.681300000000000000e+05
9.674550000000000000e+05
9.670520000000000000e+05
9.678520000000000000e+05
9.669600000000000000e+05
9.674400000000000000e+05
9.680930000000000000e+05
9.671410000000000000e+05
9.672670000000000000e+05
9.681690000000000000e+05
9.675160000000000000e+05
9.670630000000000000e+05
9.678730000000000000e+05
9.670020000000000000e+05
9.675610000000000000e+05
9.681220000000000000e+05
9.672180000000000000e+05
9.672220000000000000e+05
9.680860000000000000e+05
9.675760000000000000e+05
9.670720000000000000e+05
9.679110000000000000e+05
9.670050000000000000e+05
9.674860000000000000e+05
9.681020000000000000e+05
9.672180000000000000e+05
9.671550000000000000e+05
9.680930000000000000e+05
9.676280000000000000e+05
9.677370000000000000e+05
9.680320000000000000e+05
9.671230000000000000e+05
9.674500000000000000e+05
9.681380000000000000e+05
9.673250000000000000e+05
9.671470000000000000e+05
9.680640000000000000e+05
9.676890000000000000e+05
9.677220000000000000e+05
9.678330000000000000e+05
9.670360000000000000e+05
9.674030000000000000e+05
9.681510000000000000e+05
9.673110000000000000e+05
9.671160000000000000e+05
9.679690000000000000e+05
9.677090000000000000e+05
9.676470000000000000e+05
9.680810000000000000e+05
9.670670000000000000e+05
9.673470000000000000e+05
9.681340000000000000e+05
9.673730000000000000e+05
9.671060000000000000e+05
9.679430000000000000e+05
9.677540000000000000e+05
9.675710000000000000e+05
9.681780000000000000e+05
9.671680000000000000e+05
9.673220000000000000e+05
9.681210000000000000e+05
9.674470000000000000e+05
9.670500000000000000e+05
9.679030000000000000e+05
9.678280000000000000e+05
9.675760000000000000e+05
9.679590000000000000e+05
9.671680000000000000e+05
9.672690000000000000e+05
9.681520000000000000e+05
9.675000000000000000e+05
9.670580000000000000e+05
9.678570000000000000e+05
9.670810000000000000e+05
9.675160000000000000e+05
9.682310000000000000e+05
9.671870000000000000e+05
9.672370000000000000e+05
9.681050000000000000e+05
9.675450000000000000e+05
9.670530000000000000e+05
9.677910000000000000e+05
9.670750000000000000e+05
9.673130000000000000e+05
9.679130000000000000e+05
9.671860000000000000e+05
9.671750000000000000e+05
9.681180000000000000e+05
9.676050000000000000e+05
9.670780000000000000e+05
9.677520000000000000e+05
9.670640000000000000e+05
9.674100000000000000e+05
9.681070000000000000e+05
9.672640000000000000e+05
9.671160000000000000e+05
9.680730000000000000e+05
9.676700000000000000e+05
9.670550000000000000e+05
9.676990000000000000e+05
9.670970000000000000e+05
9.672950000000000000e+05
9.681160000000000000e+05
9.672720000000000000e+05
9.671240000000000000e+05
9.680050000000000000e+05
9.676950000000000000e+05
9.670310000000000000e+05
9.679650000000000000e+05
9.671030000000000000e+05
9.674890000000000000e+05
9.681640000000000000e+05
9.673200000000000000e+05
9.671050000000000000e+05
9.679950000000000000e+05
9.676900000000000000e+05
9.670320000000000000e+05
9.680350000000000000e+05
9.671510000000000000e+05
9.673670000000000000e+05
9.681290000000000000e+05
9.673990000000000000e+05
9.670710000000000000e+05
9.679330000000000000e+05
9.677480000000000000e+05
9.670540000000000000e+05
9.680500000000000000e+05
9.670650000000000000e+05
9.672200000000000000e+05
9.681230000000000000e+05
9.674580000000000000e+05
9.670850000000000000e+05
9.678980000000000000e+05
9.677970000000000000e+05
9.670530000000000000e+05
9.680960000000000000e+05
9.671340000000000000e+05
9.673090000000000000e+05
9.681310000000000000e+05
9.675250000000000000e+05
9.670720000000000000e+05
9.678630000000000000e+05
9.678880000000000000e+05
9.670830000000000000e+05
9.680950000000000000e+05
9.671530000000000000e+05
9.672020000000000000e+05
9.681480000000000000e+05
9.675850000000000000e+05
9.670520000000000000e+05
9.678170000000000000e+05
9.678850000000000000e+05
9.674990000000000000e+05
9.680880000000000000e+05
9.673810000000000000e+05
9.671440000000000000e+05
9.680830000000000000e+05
9.676460000000000000e+05
9.670360000000000000e+05
9.677610000000000000e+05
9.679250000000000000e+05
9.674360000000000000e+05
9.679760000000000000e+05
9.670790000000000000e+05
9.671590000000000000e+05
9.680270000000000000e+05
9.676580000000000000e+05
9.670560000000000000e+05
9.677070000000000000e+05
9.679470000000000000e+05
9.673790000000000000e+05
9.681770000000000000e+05
9.673510000000000000e+05
9.671390000000000000e+05
9.680100000000000000e+05
9.676900000000000000e+05
9.670640000000000000e+05
9.676330000000000000e+05
9.680080000000000000e+05
9.673510000000000000e+05
9.680910000000000000e+05
9.673440000000000000e+05
9.670960000000000000e+05
9.679380000000000000e+05
9.677500000000000000e+05
9.670820000000000000e+05
9.676210000000000000e+05
9.671350000000000000e+05
9.673590000000000000e+05
9.682420000000000000e+05
9.674340000000000000e+05
9.670420000000000000e+05
9.679340000000000000e+05
9.678050000000000000e+05
9.670660000000000000e+05
9.676020000000000000e+05
9.671540000000000000e+05
9.672710000000000000e+05
9.680900000000000000e+05
9.674820000000000000e+05
9.670710000000000000e+05
9.678450000000000000e+05
9.678360000000000000e+05
9.670970000000000000e+05
9.675720000000000000e+05
9.671720000000000000e+05
9.672840000000000000e+05
9.680470000000000000e+05
9.675400000000000000e+05
9.670600000000000000e+05
9.678070000000000000e+05
9.678340000000000000e+05
9.670630000000000000e+05
9.674990000000000000e+05
9.672190000000000000e+05
9.670680000000000000e+05
9.681250000000000000e+05
9.675870000000000000e+05
9.670620000000000000e+05
9.678060000000000000e+05
9.679290000000000000e+05
9.670750000000000000e+05
9.674600000000000000e+05
9.672400000000000000e+05
9.671010000000000000e+05
9.680480000000000000e+05
9.676370000000000000e+05
9.670620000000000000e+05
9.677440000000000000e+05
9.679500000000000000e+05
9.670990000000000000e+05
9.681610000000000000e+05
9.672640000000000000e+05
9.673440000000000000e+05
9.680240000000000000e+05
9.676790000000000000e+05
9.670610000000000000e+05
9.676850000000000000e+05
9.680040000000000000e+05
9.671410000000000000e+05
9.681280000000000000e+05
9.672020000000000000e+05
9.669280000000000000e+05
9.680050000000000000e+05
9.677420000000000000e+05
9.670540000000000000e+05
9.676670000000000000e+05
9.680280000000000000e+05
9.671460000000000000e+05
9.681390000000000000e+05
9.673080000000000000e+05
9.670750000000000000e+05
9.679210000000000000e+05
9.677790000000000000e+05
9.670610000000000000e+05
9.676050000000000000e+05
9.680410000000000000e+05
9.671560000000000000e+05
9.681150000000000000e+05
9.673690000000000000e+05
9.670690000000000000e+05
9.678970000000000000e+05
9.678340000000000000e+05
9.670620000000000000e+05
9.675920000000000000e+05
9.680810000000000000e+05
9.672640000000000000e+05
9.681560000000000000e+05
9.675640000000000000e+05
9.670750000000000000e+05
9.678440000000000000e+05
9.678580000000000000e+05
9.670560000000000000e+05
9.675250000000000000e+05
9.680950000000000000e+05
9.672140000000000000e+05
9.680160000000000000e+05
9.675430000000000000e+05
9.670890000000000000e+05
9.678360000000000000e+05
9.679010000000000000e+05
9.671030000000000000e+05
9.674870000000000000e+05
9.681280000000000000e+05
9.671870000000000000e+05
9.682020000000000000e+05
9.675550000000000000e+05
9.670180000000000000e+05
9.677510000000000000e+05
9.679010000000000000e+05
9.670720000000000000e+05
9.674200000000000000e+05
9.681250000000000000e+05
9.671530000000000000e+05
9.679370000000000000e+05
9.676880000000000000e+05
9.670420000000000000e+05
9.677220000000000000e+05
9.679650000000000000e+05
9.671150000000000000e+05
9.673880000000000000e+05
9.681260000000000000e+05
9.670920000000000000e+05
9.678810000000000000e+05
9.676870000000000000e+05
9.670350000000000000e+05
9.676670000000000000e+05
9.679650000000000000e+05
9.671030000000000000e+05
9.673830000000000000e+05
9.673290000000000000e+05
9.670760000000000000e+05
9.680080000000000000e+05
9.677270000000000000e+05
9.670470000000000000e+05
9.676550000000000000e+05
9.680670000000000000e+05
9.671700000000000000e+05
9.673400000000000000e+05
9.674210000000000000e+05
9.669140000000000000e+05
9.677060000000000000e+05
9.677660000000000000e+05
9.671020000000000000e+05
9.675580000000000000e+05
9.680650000000000000e+05
9.671620000000000000e+05
9.673100000000000000e+05
9.675050000000000000e+05
9.671170000000000000e+05
9.678830000000000000e+05
9.678350000000000000e+05
9.670610000000000000e+05
9.675540000000000000e+05
9.681080000000000000e+05
9.672000000000000000e+05
9.672710000000000000e+05
9.675160000000000000e+05
9.671140000000000000e+05
9.678210000000000000e+05
9.679010000000000000e+05
9.670960000000000000e+05
9.675150000000000000e+05
9.681230000000000000e+05
9.672290000000000000e+05
9.672380000000000000e+05
9.675950000000000000e+05
9.671740000000000000e+05
9.677750000000000000e+05
9.679110000000000000e+05
9.670870000000000000e+05
9.674680000000000000e+05
9.681140000000000000e+05
9.672350000000000000e+05
9.680810000000000000e+05
9.675840000000000000e+05
9.671230000000000000e+05
9.677450000000000000e+05
9.679530000000000000e+05
9.670910000000000000e+05
9.674640000000000000e+05
9.681360000000000000e+05
9.672500000000000000e+05
9.680430000000000000e+05
9.676510000000000000e+05
9.669360000000000000e+05
9.676790000000000000e+05
9.679450000000000000e+05
9.671200000000000000e+05
9.673870000000000000e+05
9.681890000000000000e+05
9.673090000000000000e+05
9.680070000000000000e+05
9.677480000000000000e+05
9.670750000000000000e+05
9.676630000000000000e+05
9.680170000000000000e+05
9.671360000000000000e+05
9.673690000000000000e+05
9.680970000000000000e+05
9.673650000000000000e+05
9.679530000000000000e+05
9.676790000000000000e+05
9.670550000000000000e+05
9.676020000000000000e+05
9.680340000000000000e+05
9.671750000000000000e+05
9.673110000000000000e+05
9.681300000000000000e+05
9.671100000000000000e+05
9.678490000000000000e+05
9.678880000000000000e+05
9.670430000000000000e+05
9.675370000000000000e+05
9.680760000000000000e+05
9.671790000000000000e+05
9.672580000000000000e+05
9.681370000000000000e+05
9.670290000000000000e+05
9.677260000000000000e+05
9.677360000000000000e+05
9.670730000000000000e+05
9.675040000000000000e+05
9.680910000000000000e+05
9.672040000000000000e+05
9.672300000000000000e+05
9.681110000000000000e+05
9.670470000000000000e+05
9.678300000000000000e+05
9.678930000000000000e+05
9.670920000000000000e+05
9.674930000000000000e+05
9.680990000000000000e+05
9.672440000000000000e+05
9.672130000000000000e+05
9.680920000000000000e+05
9.670650000000000000e+05
9.678470000000000000e+05
9.679630000000000000e+05
9.670890000000000000e+05
9.674320000000000000e+05
9.681360000000000000e+05
9.672480000000000000e+05
9.671780000000000000e+05
9.680440000000000000e+05
9.670700000000000000e+05
9.677090000000000000e+05
9.679590000000000000e+05
9.670640000000000000e+05
9.674080000000000000e+05
9.681250000000000000e+05
9.673330000000000000e+05
9.670950000000000000e+05
9.676910000000000000e+05
9.671050000000000000e+05
9.676800000000000000e+05
9.680040000000000000e+05
9.671070000000000000e+05
9.673770000000000000e+05
9.681240000000000000e+05
9.673500000000000000e+05
9.670980000000000000e+05
9.677650000000000000e+05
9.669910000000000000e+05
9.674400000000000000e+05
9.680060000000000000e+05
9.671380000000000000e+05
9.672990000000000000e+05
9.681510000000000000e+05
9.674210000000000000e+05
9.670820000000000000e+05
9.677940000000000000e+05
9.670030000000000000e+05
9.675950000000000000e+05
9.681070000000000000e+05
9.672090000000000000e+05
9.672680000000000000e+05
9.681380000000000000e+05
9.674600000000000000e+05
9.670810000000000000e+05
9.678760000000000000e+05
9.669820000000000000e+05
9.675250000000000000e+05
9.680890000000000000e+05
9.672120000000000000e+05
9.672350000000000000e+05
9.681320000000000000e+05
9.675290000000000000e+05
9.678150000000000000e+05
9.679220000000000000e+05
9.671590000000000000e+05
9.675280000000000000e+05
9.680970000000000000e+05
9.672150000000000000e+05
9.671920000000000000e+05
9.681070000000000000e+05
9.675950000000000000e+05
9.677570000000000000e+05
9.678840000000000000e+05
9.670730000000000000e+05
9.674590000000000000e+05
9.680840000000000000e+05
9.672640000000000000e+05
9.671840000000000000e+05
9.681130000000000000e+05
9.676370000000000000e+05
9.677460000000000000e+05
9.680980000000000000e+05
9.670200000000000000e+05
9.674410000000000000e+05
9.681160000000000000e+05
9.673090000000000000e+05
9.671170000000000000e+05
9.680270000000000000e+05
9.677010000000000000e+05
9.676920000000000000e+05
9.680630000000000000e+05
9.671650000000000000e+05
9.673760000000000000e+05
9.681230000000000000e+05
9.673190000000000000e+05
9.670750000000000000e+05
9.679670000000000000e+05
9.677570000000000000e+05
9.676860000000000000e+05
9.678830000000000000e+05
9.671110000000000000e+05
9.673340000000000000e+05
9.681410000000000000e+05
9.673830000000000000e+05
9.670870000000000000e+05
9.679510000000000000e+05
9.670360000000000000e+05
9.675410000000000000e+05
9.681960000000000000e+05
9.671930000000000000e+05
9.673290000000000000e+05
9.681310000000000000e+05
9.674510000000000000e+05
9.670710000000000000e+05
9.678880000000000000e+05
9.670570000000000000e+05
9.673890000000000000e+05
9.678850000000000000e+05
9.671600000000000000e+05
9.672540000000000000e+05
9.681060000000000000e+05
9.675170000000000000e+05
9.670560000000000000e+05
9.678490000000000000e+05
9.670520000000000000e+05
9.674850000000000000e+05
9.680970000000000000e+05
9.672330000000000000e+05
9.672090000000000000e+05
9.681030000000000000e+05
9.675350000000000000e+05
9.670660000000000000e+05
9.678030000000000000e+05
9.670890000000000000e+05
9.672950000000000000e+05
9.681120000000000000e+05
9.672360000000000000e+05
9.671830000000000000e+05
9.680770000000000000e+05
9.676290000000000000e+05
9.670850000000000000e+05
9.679150000000000000e+05
9.670640000000000000e+05
9.675560000000000000e+05
9.681350000000000000e+05
9.672910000000000000e+05
9.671630000000000000e+05
9.680480000000000000e+05
9.676750000000000000e+05
9.670570000000000000e+05
9.679510000000000000e+05
9.669880000000000000e+05
9.674040000000000000e+05
9.681400000000000000e+05
9.673210000000000000e+05
9.671370000000000000e+05
9.679870000000000000e+05
9.677280000000000000e+05
9.671000000000000000e+05
9.679940000000000000e+05
9.671040000000000000e+05
9.672940000000000000e+05
9.681570000000000000e+05
9.673920000000000000e+05
9.671110000000000000e+05
9.679420000000000000e+05
9.677690000000000000e+05
9.670380000000000000e+05
9.680550000000000000e+05
9.671410000000000000e+05
9.673190000000000000e+05
9.681390000000000000e+05
9.674680000000000000e+05
9.670650000000000000e+05
9.678920000000000000e+05
9.677860000000000000e+05
9.670650000000000000e+05
9.680880000000000000e+05
9.670990000000000000e+05
9.672960000000000000e+05
9.681560000000000000e+05
9.674960000000000000e+05
9.670640000000000000e+05
9.678630000000000000e+05
9.678740000000000000e+05
9.675530000000000000e+05
9.680300000000000000e+05
9.672650000000000000e+05
9.672380000000000000e+05
9.681340000000000000e+05
9.675410000000000000e+05
9.670110000000000000e+05
9.678110000000000000e+05
9.679230000000000000e+05
9.675210000000000000e+05
9.679830000000000000e+05
9.669940000000000000e+05
9.671970000000000000e+05
9.680920000000000000e+05
9.676010000000000000e+05
9.670750000000000000e+05
9.677680000000000000e+05
9.678910000000000000e+05
9.674790000000000000e+05
9.681170000000000000e+05
9.672720000000000000e+05
9.671700000000000000e+05
9.680660000000000000e+05
9.676400000000000000e+05
9.670500000000000000e+05
9.677610000000000000e+05
9.679340000000000000e+05
9.674200000000000000e+05
9.681990000000000000e+05
9.672630000000000000e+05
9.671430000000000000e+05
9.679860000000000000e+05
9.676730000000000000e+05
9.670650000000000000e+05
9.676810000000000000e+05
9.679980000000000000e+05
9.673810000000000000e+05
9.682020000000000000e+05
9.673730000000000000e+05
9.671290000000000000e+05
9.679750000000000000e+05
9.677440000000000000e+05
9.670250000000000000e+05
9.676310000000000000e+05
9.671410000000000000e+05
9.673570000000000000e+05
9.682910000000000000e+05
9.673970000000000000e+05
9.670580000000000000e+05
9.679540000000000000e+05
9.678000000000000000e+05
9.670640000000000000e+05
9.675460000000000000e+05
9.671520000000000000e+05
9.671740000000000000e+05
9.679980000000000000e+05
9.674800000000000000e+05
9.670690000000000000e+05
9.678600000000000000e+05
9.678350000000000000e+05
9.670610000000000000e+05
9.675400000000000000e+05
9.671870000000000000e+05
9.671320000000000000e+05
9.681830000000000000e+05
9.675270000000000000e+05
9.670260000000000000e+05
9.678550000000000000e+05
9.679080000000000000e+05
9.670980000000000000e+05
9.675050000000000000e+05
9.671840000000000000e+05
9.670950000000000000e+05
9.681180000000000000e+05
9.675900000000000000e+05
9.670800000000000000e+05
9.678090000000000000e+05
9.679030000000000000e+05
9.670820000000000000e+05
9.681400000000000000e+05
9.673160000000000000e+05
9.672350000000000000e+05
9.680840000000000000e+05
9.676280000000000000e+05
9.670340000000000000e+05
9.677210000000000000e+05
9.679580000000000000e+05
9.671270000000000000e+05
9.681000000000000000e+05
9.671600000000000000e+05
9.670380000000000000e+05
9.680380000000000000e+05
9.677000000000000000e+05
9.670820000000000000e+05
9.677160000000000000e+05
9.680130000000000000e+05
9.670830000000000000e+05
9.681700000000000000e+05
9.673990000000000000e+05
9.670310000000000000e+05
9.680000000000000000e+05
9.677180000000000000e+05
9.670630000000000000e+05
9.676360000000000000e+05
9.680330000000000000e+05
9.671400000000000000e+05
9.681370000000000000e+05
9.675480000000000000e+05
9.670640000000000000e+05
9.679620000000000000e+05
9.678070000000000000e+05
9.670590000000000000e+05
9.675990000000000000e+05
9.680490000000000000e+05
9.671620000000000000e+05
9.681530000000000000e+05
9.673600000000000000e+05
9.670590000000000000e+05
9.679040000000000000e+05
9.678410000000000000e+05
9.670540000000000000e+05
9.675590000000000000e+05
9.680800000000000000e+05
9.672540000000000000e+05
9.681350000000000000e+05
9.675600000000000000e+05
9.670800000000000000e+05
9.678150000000000000e+05
9.678830000000000000e+05
9.670670000000000000e+05
9.675280000000000000e+05
9.681000000000000000e+05
9.672450000000000000e+05
9.678850000000000000e+05
9.674090000000000000e+05
9.670600000000000000e+05
9.678410000000000000e+05
9.679090000000000000e+05
9.670800000000000000e+05
9.674710000000000000e+05
9.681410000000000000e+05
9.671790000000000000e+05
9.680370000000000000e+05
9.675710000000000000e+05
9.670220000000000000e+05
9.677660000000000000e+05
9.679670000000000000e+05
9.671000000000000000e+05
9.674450000000000000e+05
9.681350000000000000e+05
9.671530000000000000e+05
9.679420000000000000e+05
9.676320000000000000e+05
9.670610000000000000e+05
9.676920000000000000e+05
9.679760000000000000e+05
9.670860000000000000e+05
9.673970000000000000e+05
9.673140000000000000e+05
9.671870000000000000e+05
9.680890000000000000e+05
9.677210000000000000e+05
9.670670000000000000e+05
9.676320000000000000e+05
9.680270000000000000e+05
9.671390000000000000e+05
9.673640000000000000e+05
9.673890000000000000e+05
9.669480000000000000e+05
9.678830000000000000e+05
9.677790000000000000e+05
9.670770000000000000e+05
9.675840000000000000e+05
9.680050000000000000e+05
9.671360000000000000e+05
9.673210000000000000e+05
9.674410000000000000e+05
9.672520000000000000e+05
9.678710000000000000e+05
9.678020000000000000e+05
9.670690000000000000e+05
9.675630000000000000e+05
9.680800000000000000e+05
9.671620000000000000e+05
9.672910000000000000e+05
9.674680000000000000e+05
9.670750000000000000e+05
9.678770000000000000e+05
9.678870000000000000e+05
9.670770000000000000e+05
9.675200000000000000e+05
9.680890000000000000e+05
9.671800000000000000e+05
9.672360000000000000e+05
9.675690000000000000e+05
9.668720000000000000e+05
9.678200000000000000e+05
9.678870000000000000e+05
9.670830000000000000e+05
9.674890000000000000e+05
9.681540000000000000e+05
9.672360000000000000e+05
9.681100000000000000e+05
9.675900000000000000e+05
9.672530000000000000e+05
9.677640000000000000e+05
9.679580000000000000e+05
9.671180000000000000e+05
9.674550000000000000e+05
9.681200000000000000e+05
9.672830000000000000e+05
9.680860000000000000e+05
9.674510000000000000e+05
9.669220000000000000e+05
9.677190000000000000e+05
9.679750000000000000e+05
