8.669735717773437500e+02
8.662593994140625000e+02
8.678164672851562500e+02
8.699666748046875000e+02
8.717377319335937500e+02
8.729328002929687500e+02
8.738312377929687500e+02
8.747131347656250000e+02
8.755756835937500000e+02
8.763096923828125000e+02
8.768663330078125000e+02
8.773759155273437500e+02
8.779947509765625000e+02
8.787814941406250000e+02
8.795659790039062500e+02
8.801043701171875000e+02
8.803312988281250000e+02
8.802734985351562500e+02
8.799453125000000000e+02
8.794264526367187500e+02
8.789346923828125000e+02
8.787393188476562500e+02
8.790941162109375000e+02
8.800781860351562500e+02
8.814972534179687500e+02
8.828885498046875000e+02
8.837797851562500000e+02
8.839508056640625000e+02
8.836199340820312500e+02
8.832497558593750000e+02
8.832459716796875000e+02
8.837396240234375000e+02
8.845197753906250000e+02
8.852894897460937500e+02
8.858706054687500000e+02
8.862616577148437500e+02
8.864067993164062500e+02
8.861777954101562500e+02
8.855156860351562500e+02
8.846264038085937500e+02
8.839061889648437500e+02
8.836060791015625000e+02
8.835419311523437500e+02
8.832656250000000000e+02
8.827785644531250000e+02
8.832719726562500000e+02
8.871683349609375000e+02
8.970723266601562500e+02
9.141450195312500000e+02
9.370167236328125000e+02
9.620540161132812500e+02
9.847963867187500000e+02
1.001533447265625000e+03
1.010257080078125000e+03
1.010582336425781250e+03
1.003085876464843750e+03
9.889050903320312500e+02
9.697836914062500000e+02
9.481833496093750000e+02
9.271679687500000000e+02
9.096470947265625000e+02
8.973723754882812500e+02
8.904105834960937500e+02
8.874591674804687500e+02
8.867603759765625000e+02
8.870259399414062500e+02
8.878581542968750000e+02
8.893146972656250000e+02
8.913717651367187500e+02
8.935553588867187500e+02
8.950882568359375000e+02
8.954589233398437500e+02
8.947455444335937500e+02
8.934998779296875000e+02
8.922383422851562500e+02
8.905813598632812500e+02
8.868219604492187500e+02
8.784443359375000000e+02
8.646496582031250000e+02
8.504387207031250000e+02
8.486760253906250000e+02
8.769069213867187500e+02
9.483308105468750000e+02
1.060372680664062500e+03
1.189057739257812500e+03
1.295766357421875000e+03
1.343922363281250000e+03
1.316765502929687500e+03
1.225413940429687500e+03
1.102540283203125000e+03
9.859392700195312500e+02
9.022523193359375000e+02
8.590624389648437500e+02
8.481104736328125000e+02
8.546242065429687500e+02
8.657417602539062500e+02
8.744923706054687500e+02
8.793944702148437500e+02
8.815706787109375000e+02
8.824710083007812500e+02
8.831658935546875000e+02
8.839548339843750000e+02
8.846034545898437500e+02
8.846127929687500000e+02
8.837943725585937500e+02
8.825500488281250000e+02
8.816844482421875000e+02
8.817857055664062500e+02
8.828505249023437500e+02
8.843131713867187500e+02
8.855444335937500000e+02
8.861539916992187500e+02
8.860589599609375000e+02
8.853324584960937500e+02
8.840915527343750000e+02
8.826264648437500000e+02
8.815000610351562500e+02
8.817271728515625000e+02
8.845379028320312500e+02
8.909972534179687500e+02
9.016995849609375000e+02
9.165790405273437500e+02
9.350519409179687500e+02
9.561835937500000000e+02
9.787968750000000000e+02
1.001576477050781250e+03
1.023273864746093750e+03
1.043022583007812500e+03
1.060540527343750000e+03
1.076022949218750000e+03
1.089895629882812500e+03
1.102304565429687500e+03
1.113014648437500000e+03
1.121490112304687500e+03
1.127277587890625000e+03
1.130091552734375000e+03
1.129586303710937500e+03
1.125314331054687500e+03
1.116713623046875000e+03
1.103423583984375000e+03
1.085630615234375000e+03
1.064134399414062500e+03
1.040089355468750000e+03
1.014517089843750000e+03
9.880387573242187500e+02
9.612070312500000000e+02
9.349905395507812500e+02
9.110618286132812500e+02
8.913904418945312500e+02
8.775255126953125000e+02
8.698124389648437500e+02
8.672785034179687500e+02
8.681578369140625000e+02
8.705103759765625000e+02
8.728228759765625000e+02
8.742111816406250000e+02
8.744824829101562500e+02
8.741063232421875000e+02
8.738229980468750000e+02
8.741932373046875000e+02
8.752928466796875000e+02
8.768175659179687500e+02
8.783033447265625000e+02
8.793182373046875000e+02
8.795798339843750000e+02
8.790587768554687500e+02
8.780000610351562500e+02
8.769638671875000000e+02
8.766444702148437500e+02
8.774832153320312500e+02
8.792741699218750000e+02
8.813298950195312500e+02
8.828813476562500000e+02
8.835139770507812500e+02
8.834317016601562500e+02
8.832811279296875000e+02
8.836921386718750000e+02
8.848393554687500000e+02
8.863371582031250000e+02
8.876313476562500000e+02
8.883615722656250000e+02
8.884774169921875000e+02
8.881972045898437500e+02
8.878027954101562500e+02
8.874603881835937500e+02
8.872582397460937500e+02
8.873359375000000000e+02
8.878582153320312500e+02
8.887817382812500000e+02
8.898746948242187500e+02
8.907792968750000000e+02
8.911428833007812500e+02
8.907419433593750000e+02
8.896289062500000000e+02
8.883260498046875000e+02
8.878876953125000000e+02
8.899456787109375000e+02
8.963154907226562500e+02
9.080922851562500000e+02
9.250019531250000000e+02
9.452468261718750000e+02
9.660516967773437500e+02
9.846116943359375000e+02
9.986288452148437500e+02
1.006565612792968750e+03
1.007514892578125000e+03
1.001196716308593750e+03
9.882049560546875000e+02
9.701934204101562500e+02
9.497133178710937500e+02
9.296583862304687500e+02
9.125566406250000000e+02
8.999281005859375000e+02
8.919689941406250000e+02
8.879937744140625000e+02
8.868833618164062500e+02
8.875088500976562500e+02
8.890617675781250000e+02
8.909810180664062500e+02
8.928311767578125000e+02
8.942171630859375000e+02
8.947924804687500000e+02
8.945168457031250000e+02
8.937733764648437500e+02
8.932386474609375000e+02
8.932529907226562500e+02
8.930683593750000000e+02
8.903828125000000000e+02
8.823632202148437500e+02
8.690343017578125000e+02
8.573658447265625000e+02
8.620874633789062500e+02
9.008982543945312500e+02
9.838767700195312500e+02
1.102798095703125000e+03
1.228520385742187500e+03
1.321078613281250000e+03
1.347783081054687500e+03
1.299360961914062500e+03
1.194174072265625000e+03
1.068399902343750000e+03
9.586361083984375000e+02
8.868759155273437500e+02
8.555635986328125000e+02
8.529561157226562500e+02
8.631392822265625000e+02
8.738593139648437500e+02
8.799240112304687500e+02
8.817218017578125000e+02
8.816390380859375000e+02
8.814609375000000000e+02
8.817431640625000000e+02
8.821323242187500000e+02
8.821727294921875000e+02
8.817299194335937500e+02
8.811397094726562500e+02
8.810717773437500000e+02
8.819329833984375000e+02
8.836279296875000000e+02
8.856621093750000000e+02
8.875177001953125000e+02
8.888472900390625000e+02
8.897049560546875000e+02
8.903084106445312500e+02
8.907931518554687500e+02
8.910350341796875000e+02
8.908436889648437500e+02
8.904204711914062500e+02
8.906296997070312500e+02
8.930275878906250000e+02
8.993218994140625000e+02
9.107378540039062500e+02
9.271740112304687500e+02
9.473889770507812500e+02
9.695594482421875000e+02
9.920993652343750000e+02
1.014008728027343750e+03
1.034797851562500000e+03
1.053954101562500000e+03
1.070967407226562500e+03
1.085525634765625000e+03
1.097732055664062500e+03
1.107889404296875000e+03
1.116122924804687500e+03
1.122262817382812500e+03
1.126028930664062500e+03
1.127250244140625000e+03
1.125696411132812500e+03
1.120961914062500000e+03
1.112316528320312500e+03
1.099135131835937500e+03
1.081406005859375000e+03
1.059866333007812500e+03
1.035546997070312500e+03
1.009287719726562500e+03
9.816999511718750000e+02
9.535371093750000000e+02
9.262413330078125000e+02
9.019550170898437500e+02
8.828470458984375000e+02
8.702609863281250000e+02
8.640700073242187500e+02
8.627686767578125000e+02
8.641343383789062500e+02
8.661744384765625000e+02
8.678868408203125000e+02
8.691549072265625000e+02
8.702497558593750000e+02
8.714588623046875000e+02
8.728211669921875000e+02
8.742465209960937500e+02
8.756182250976562500e+02
8.768505249023437500e+02
8.777933959960937500e+02
8.781894531250000000e+02
8.779783935546875000e+02
8.774295654296875000e+02
8.770208740234375000e+02
8.770780639648437500e+02
8.775899047851562500e+02
8.783386840820312500e+02
8.790473632812500000e+02
8.797072753906250000e+02
8.805702514648437500e+02
8.819172363281250000e+02
8.837711791992187500e+02
8.858679809570312500e+02
8.877277832031250000e+02
8.889503173828125000e+02
8.894098510742187500e+02
8.893505249023437500e+02
8.891141357421875000e+02
8.888403930664062500e+02
8.884736938476562500e+02
8.879649658203125000e+02
8.874624633789062500e+02
8.872749633789062500e+02
8.875852661132812500e+02
8.882241821289062500e+02
8.889529418945312500e+02
8.895830078125000000e+02
8.900954589843750000e+02
8.905024414062500000e+02
8.907794799804687500e+02
8.908634643554687500e+02
8.910541992187500000e+02
8.923239746093750000e+02
8.962622070312500000e+02
9.045009155273437500e+02
9.178924560546875000e+02
9.360336303710937500e+02
9.571016235351562500e+02
9.781635742187500000e+02
9.958857421875000000e+02
1.007524597167968750e+03
1.011413696289062500e+03
1.007171875000000000e+03
9.955848388671875000e+02
9.783397827148437500e+02
9.577770385742187500e+02
9.367229614257812500e+02
9.180128784179687500e+02
9.037652587890625000e+02
8.947393798828125000e+02
8.902964477539062500e+02
8.889041137695312500e+02
8.888126831054687500e+02
8.886477050781250000e+02
8.877320556640625000e+02
8.861297607421875000e+02
8.844499511718750000e+02
8.834324340820312500e+02
8.835056762695312500e+02
8.845084228515625000e+02
8.859335937500000000e+02
8.874204711914062500e+02
8.885970458984375000e+02
8.883906250000000000e+02
8.845830078125000000e+02
8.751138916015625000e+02
8.617182617187500000e+02
8.536393432617187500e+02
8.671536865234375000e+02
9.190244140625000000e+02
1.014981140136718750e+03
1.140410278320312500e+03
1.261201904296875000e+03
1.337240966796875000e+03
1.341263549804687500e+03
1.272575317382812500e+03
1.156964965820312500e+03
1.033009155273437500e+03
9.339639282226562500e+02
8.753217773437500000e+02
8.538008422851562500e+02
8.553867797851562500e+02
8.653687133789062500e+02
8.744703369140625000e+02
8.798891601562500000e+02
8.825394287109375000e+02
8.839210815429687500e+02
8.847030029296875000e+02
8.849455566406250000e+02
8.845012207031250000e+02
8.835560302734375000e+02
8.826371459960937500e+02
8.823209838867187500e+02
8.829415893554687500e+02
8.843948974609375000e+02
8.861917724609375000e+02
8.876312866210937500e+02
8.882150268554687500e+02
8.878003540039062500e+02
8.866790771484375000e+02
8.855261840820312500e+02
8.849509887695312500e+02
8.852326049804687500e+02
8.861884765625000000e+02
8.875064086914062500e+02
8.893271484375000000e+02
8.926238403320312500e+02
8.989069824218750000e+02
9.094727172851562500e+02
9.246980590820312500e+02
9.439532470703125000e+02
9.659537963867187500e+02
9.893334960937500000e+02
1.012797302246093750e+03
1.035123901367187500e+03
1.055218261718750000e+03
1.072401733398437500e+03
1.086814941406250000e+03
1.099131103515625000e+03
1.109954833984375000e+03
1.119228881835937500e+03
1.126272583007812500e+03
1.130222656250000000e+03
1.130446777343750000e+03
1.126611450195312500e+03
1.118652587890625000e+03
1.106525390625000000e+03
1.090442016601562500e+03
1.070917968750000000e+03
1.048614746093750000e+03
1.024134887695312500e+03
9.980056152343750000e+02
9.708829956054687500e+02
9.439267578125000000e+02
9.188285522460937500e+02
8.974588012695312500e+02
8.813133544921875000e+02
8.709212036132812500e+02
8.656869506835937500e+02
8.641823120117187500e+02
8.647778320312500000e+02
8.661731567382812500e+02
8.676055908203125000e+02
8.686726684570312500e+02
8.692819824218750000e+02
8.695883789062500000e+02
8.699229125976562500e+02
8.705547485351562500e+02
8.716213989257812500e+02
8.730184326171875000e+02
8.745572509765625000e+02
8.761742553710937500e+02
8.779268188476562500e+02
8.798750610351562500e+02
8.817236328125000000e+02
8.829690551757812500e+02
8.832713623046875000e+02
8.827199707031250000e+02
8.819262695312500000e+02
8.816977539062500000e+02
8.824500122070312500e+02
8.839235839843750000e+02
8.853651733398437500e+02
8.861193237304687500e+02
8.860725708007812500e+02
8.857303466796875000e+02
8.857781372070312500e+02
8.866231689453125000e+02
8.881115112304687500e+02
8.895432739257812500e+02
8.901354980468750000e+02
8.894498901367187500e+02
8.877312011718750000e+02
8.857702636718750000e+02
8.844383544921875000e+02
8.841461791992187500e+02
8.846694335937500000e+02
8.854866943359375000e+02
8.861860351562500000e+02
8.866520996093750000e+02
8.869967651367187500e+02
8.876057128906250000e+02
8.893596191406250000e+02
8.938540039062500000e+02
9.029199218750000000e+02
9.175539550781250000e+02
9.369603881835937500e+02
9.585586547851562500e+02
9.789593505859375000e+02
9.951752929687500000e+02
1.005241638183593750e+03
1.008242431640625000e+03
1.003988098144531250e+03
9.928863525390625000e+02
9.760559082031250000e+02
9.555584106445312500e+02
9.342293701171875000e+02
9.149055175781250000e+02
8.997556152343750000e+02
8.896465454101562500e+02
8.842014160156250000e+02
8.822699584960937500e+02
8.825996093750000000e+02
8.842313842773437500e+02
8.864240722656250000e+02
8.885468139648437500e+02
8.901513671875000000e+02
8.911691284179687500e+02
8.919193115234375000e+02
8.927851562500000000e+02
8.939896240234375000e+02
8.953972167968750000e+02
8.961551513671875000e+02
8.945202636718750000e+02
8.879877319335937500e+02
8.753269042968750000e+02
8.603985595703125000e+02
8.549199218750000000e+02
8.765104980468750000e+02
9.404539184570312500e+02
1.047670043945312500e+03
1.177094726562500000e+03
1.290400878906250000e+03
1.348302124023437500e+03
1.329869018554687500e+03
1.243013427734375000e+03
1.119812988281250000e+03
9.998261718750000000e+02
9.122945556640625000e+02
8.666322021484375000e+02
8.549080200195312500e+02
8.614518432617187500e+02
8.721492309570312500e+02
8.792955932617187500e+02
8.815778808593750000e+02
8.809533691406250000e+02
8.797515258789062500e+02
8.794106445312500000e+02
8.801533813476562500e+02
8.814487915039062500e+02
8.826043090820312500e+02
8.832359619140625000e+02
8.834102783203125000e+02
8.835490722656250000e+02
8.840559082031250000e+02
8.851196289062500000e+02
8.865576782226562500e+02
8.878919067382812500e+02
8.885892944335937500e+02
8.883334960937500000e+02
8.871580200195312500e+02
8.854357910156250000e+02
8.836948242187500000e+02
8.824642333984375000e+02
8.824207763671875000e+02
8.846851196289062500e+02
8.906563110351562500e+02
9.015866699218750000e+02
9.177883300781250000e+02
9.382606811523437500e+02
9.611062622070312500e+02
9.843609008789062500e+02
1.006652954101562500e+03
1.027336669921875000e+03
1.046222290039062500e+03
1.063159790039062500e+03
1.078108642578125000e+03
1.091243408203125000e+03
1.102795898437500000e+03
1.112755737304687500e+03
1.120820190429687500e+03
1.126471557617187500e+03
1.129278198242187500e+03
1.128919311523437500e+03
1.125211914062500000e+03
1.117999023437500000e+03
1.106973022460937500e+03
1.091818969726562500e+03
1.072366088867187500e+03
1.048730468750000000e+03
1.021490844726562500e+03
9.919831542968750000e+02
9.621629028320312500e+02
9.342934570312500000e+02
9.103890380859375000e+02
8.918184204101562500e+02
8.791082153320312500e+02
8.717643432617187500e+02
8.685090942382812500e+02
8.677911376953125000e+02
8.682577514648437500e+02
8.691309204101562500e+02
8.702232666015625000e+02
8.715430297851562500e+02
8.730008544921875000e+02
8.744500732421875000e+02
8.757286987304687500e+02
8.767055053710937500e+02
8.773829345703125000e+02
8.778690795898437500e+02
8.782944335937500000e+02
8.787668457031250000e+02
8.792888183593750000e+02
8.797434692382812500e+02
8.799552612304687500e+02
8.798788452148437500e+02
8.798287353515625000e+02
8.802406616210937500e+02
8.813181762695312500e+02
8.828530273437500000e+02
8.843979492187500000e+02
8.854392089843750000e+02
8.856879272460937500e+02
8.851873779296875000e+02
8.842187500000000000e+02
8.831520996093750000e+02
8.823850708007812500e+02
8.822469482421875000e+02
8.828343505859375000e+02
8.839835205078125000e+02
8.853450317382812500e+02
8.865408935546875000e+02
8.872391357421875000e+02
8.873020629882812500e+02
8.868507690429687500e+02
8.861809082031250000e+02
8.856282348632812500e+02
8.853814086914062500e+02
8.853635864257812500e+02
8.853999633789062500e+02
8.854967651367187500e+02
8.858945922851562500e+02
8.871719970703125000e+02
8.903136596679687500e+02
8.968101196289062500e+02
9.080266113281250000e+02
9.243605957031250000e+02
9.446311035156250000e+02
9.662659301757812500e+02
9.861461791992187500e+02
1.001480529785156250e+03
1.010314331054687500e+03
1.011524230957031250e+03
1.004787963867187500e+03
9.908021240234375000e+02
9.714591064453125000e+02
9.495466308593750000e+02
9.281228027343750000e+02
9.097634277343750000e+02
8.962469482421875000e+02
8.882344360351562500e+02
8.852830200195312500e+02
8.859411010742187500e+02
8.881833496093750000e+02
8.902341918945312500e+02
8.911537475585937500e+02
8.910066528320312500e+02
8.905075683593750000e+02
8.902802734375000000e+02
8.904772338867187500e+02
8.909166870117187500e+02
8.914313964843750000e+02
8.919862670898437500e+02
8.920245361328125000e+02
8.897366943359375000e+02
8.823634643554687500e+02
8.691830444335937500e+02
8.560051879882812500e+02
8.569428710937500000e+02
8.903905029296875000e+02
9.685441284179687500e+02
1.085739624023437500e+03
1.214362060546875000e+03
1.313917114257812500e+03
1.349439697265625000e+03
1.308767211914062500e+03
1.208231689453125000e+03
1.083629028320312500e+03
9.723649902343750000e+02
8.977640380859375000e+02
8.633882446289062500e+02
8.582243652343750000e+02
8.666868286132812500e+02
8.765765380859375000e+02
8.824025268554687500e+02
8.841239013671875000e+02
8.838096923828125000e+02
8.831125488281250000e+02
8.827326049804687500e+02
8.826058349609375000e+02
8.824509277343750000e+02
8.822355346679687500e+02
8.823174438476562500e+02
8.830412597656250000e+02
8.843982543945312500e+02
8.859589843750000000e+02
8.872015991210937500e+02
8.879431762695312500e+02
8.884473266601562500e+02
8.891466674804687500e+02
8.902448730468750000e+02
8.914592285156250000e+02
8.921506347656250000e+02
8.919013061523437500e+02
8.910031127929687500e+02
8.906446533203125000e+02
8.926823730468750000e+02
8.989388427734375000e+02
9.104988403320312500e+02
9.272960205078125000e+02
9.482270507812500000e+02
9.714900512695312500e+02
9.952302246093750000e+02
1.017970275878906250e+03
1.038764038085937500e+03
1.057020629882812500e+03
1.072544677734375000e+03
1.085583618164062500e+03
1.096641235351562500e+03
1.106191040039062500e+03
1.114407104492187500e+03
1.121005249023437500e+03
1.125426025390625000e+03
1.127020629882812500e+03
1.125254028320312500e+03
1.119830932617187500e+03
1.110527221679687500e+03
1.097169555664062500e+03
1.079800048828125000e+03
1.058848266601562500e+03
1.034984619140625000e+03
1.009020751953125000e+03
9.818593750000000000e+02
9.545524291992187500e+02
9.285398559570312500e+02
9.054888305664062500e+02
8.869388427734375000e+02
8.739660034179687500e+02
8.666272583007812500e+02
8.639052734375000000e+02
8.640302124023437500e+02
8.652621459960937500e+02
8.665024414062500000e+02
8.674834594726562500e+02
8.684383544921875000e+02
8.696246948242187500e+02
8.709686889648437500e+02
8.720908203125000000e+02
8.727495727539062500e+02
8.731590576171875000e+02
8.737293090820312500e+02
8.746562500000000000e+02
8.758092651367187500e+02
8.769301757812500000e+02
8.778972778320312500e+02
8.787759399414062500e+02
8.796915283203125000e+02
8.806934814453125000e+02
8.816973876953125000e+02
8.825074462890625000e+02
8.830007934570312500e+02
8.831561889648437500e+02
8.830263671875000000e+02
8.827734985351562500e+02
8.826585693359375000e+02
8.829497070312500000e+02
8.836898803710937500e+02
8.846499023437500000e+02
8.855029296875000000e+02
8.861085205078125000e+02
8.866336669921875000e+02
8.872940063476562500e+02
8.881322631835937500e+02
8.889303588867187500e+02
8.894190063476562500e+02
8.896267700195312500e+02
8.897563476562500000e+02
8.899624633789062500e+02
8.900982666015625000e+02
8.898250122070312500e+02
8.890078735351562500e+02
8.880220336914062500e+02
8.877609863281250000e+02
8.894465942382812500e+02
8.943645019531250000e+02
9.035415039062500000e+02
9.172328491210937500e+02
9.347098999023437500e+02
9.543393554687500000e+02
9.740430908203125000e+02
9.915989990234375000e+02
1.004705505371093750e+03
1.011295593261718750e+03
1.009938049316406250e+03
1.000443481445312500e+03
9.841699218750000000e+02
9.637332153320312500e+02
9.422147216796875000e+02
9.224544067382812500e+02
9.065258789062500000e+02
8.955668945312500000e+02
8.896178588867187500e+02
8.878341064453125000e+02
8.887817382812500000e+02
8.908828735351562500e+02
8.927787475585937500e+02
8.936784667968750000e+02
8.935198364257812500e+02
8.928457641601562500e+02
8.923650512695312500e+02
8.924262084960937500e+02
8.929686889648437500e+02
8.937601928710937500e+02
8.942946166992187500e+02
8.934561157226562500e+02
8.891461791992187500e+02
8.791973266601562500e+02
8.648253173828125000e+02
8.544480590820312500e+02
8.638610839843750000e+02
9.103585205078125000e+02
1.001551147460937500e+03
1.125168212890625000e+03
1.248651245117187500e+03
1.331406005859375000e+03
1.343847045898437500e+03
1.282158569335937500e+03
1.169771362304687500e+03
1.044888671875000000e+03
9.423035888671875000e+02
8.798039550781250000e+02
8.557332763671875000e+02
8.563783569335937500e+02
8.661854858398437500e+02
8.748268432617187500e+02
8.791157836914062500e+02
8.805252685546875000e+02
8.813683471679687500e+02
8.827419433593750000e+02
8.844516601562500000e+02
8.858001098632812500e+02
8.864130249023437500e+02
8.865395507812500000e+02
8.868560180664062500e+02
8.880118408203125000e+02
8.902169799804687500e+02
8.930113525390625000e+02
8.954454956054687500e+02
8.966407470703125000e+02
8.962717895507812500e+02
8.947047729492187500e+02
8.927105102539062500e+02
8.909063110351562500e+02
8.894440917968750000e+02
8.881502075195312500e+02
8.871137084960937500e+02
8.872080688476562500e+02
8.900386352539062500e+02
8.972585449218750000e+02
9.097888793945312500e+02
9.273300170898437500e+02
9.485455322265625000e+02
9.715707397460937500e+02
9.947879638671875000e+02
1.017085449218750000e+03
1.037854003906250000e+03
1.056639526367187500e+03
1.073160034179687500e+03
1.087355712890625000e+03
1.099396484375000000e+03
1.109434204101562500e+03
1.117404418945312500e+03
1.123120483398437500e+03
1.126422729492187500e+03
1.127274169921875000e+03
1.125489135742187500e+03
1.120534301757812500e+03
1.111351074218750000e+03
1.097095336914062500e+03
1.077784179687500000e+03
1.054552856445312500e+03
1.029036254882812500e+03
1.002647705078125000e+03
9.762005615234375000e+02
9.502525024414062500e+02
9.257064208984375000e+02
9.040507812500000000e+02
8.869456176757812500e+02
8.753731689453125000e+02
8.690721435546875000e+02
8.667406005859375000e+02
8.666956787109375000e+02
8.676231689453125000e+02
8.690145263671875000e+02
8.707999877929687500e+02
8.729417724609375000e+02
8.750632324218750000e+02
8.766038818359375000e+02
8.771920776367187500e+02
8.769476928710937500e+02
8.763673706054687500e+02
8.759611206054687500e+02
8.758944091796875000e+02
8.759631958007812500e+02
8.759425048828125000e+02
8.758370971679687500e+02
8.758137207031250000e+02
8.761249389648437500e+02
8.768269042968750000e+02
8.777932128906250000e+02
8.788773193359375000e+02
8.799174194335937500e+02
8.807793579101562500e+02
8.813229980468750000e+02
8.815288696289062500e+02
8.815803833007812500e+02
8.819033813476562500e+02
8.827986450195312500e+02
8.842765502929687500e+02
8.859827270507812500e+02
8.874063110351562500e+02
8.881412963867187500e+02
8.881062622070312500e+02
8.875040893554687500e+02
8.867663574218750000e+02
8.863562622070312500e+02
8.866044311523437500e+02
8.875844726562500000e+02
8.891411132812500000e+02
8.909624633789062500e+02
8.926206054687500000e+02
8.936762695312500000e+02
8.937621459960937500e+02
8.931266479492187500e+02
8.929414672851562500e+02
8.954423217773437500e+02
9.030044555664062500e+02
9.168469848632812500e+02
9.360456542968750000e+02
9.577287597656250000e+02
9.782868652343750000e+02
9.946348876953125000e+02
1.004909667968750000e+03
1.008347595214843750e+03
1.004897094726562500e+03
9.949572143554687500e+02
