8.833587036132812500e+02
8.839002685546875000e+02
8.839605712890625000e+02
8.838115234375000000e+02
8.838023071289062500e+02
8.843338012695312500e+02
8.855905761718750000e+02
8.874387207031250000e+02
8.893493041992187500e+02
8.905645751953125000e+02
8.905288696289062500e+02
8.891121826171875000e+02
8.867570190429687500e+02
8.844630126953125000e+02
8.837932739257812500e+02
8.866693725585937500e+02
8.947459106445312500e+02
9.086231689453125000e+02
9.274518432617187500e+02
9.491250610351562500e+02
9.709893798828125000e+02
9.903494262695312500e+02
1.004824584960937500e+03
1.012382324218750000e+03
1.011700378417968750e+03
1.002661743164062500e+03
9.863991699218750000e+02
9.651944580078125000e+02
9.419716186523437500e+02
9.197588500976562500e+02
9.012955322265625000e+02
8.884533691406250000e+02
8.816624145507812500e+02
8.799351806640625000e+02
8.813955078125000000e+02
8.841499633789062500e+02
8.868682861328125000e+02
8.889730224609375000e+02
8.904072265625000000e+02
8.913361206054687500e+02
8.918724365234375000e+02
8.921042480468750000e+02
8.923159179687500000e+02
8.928536376953125000e+02
8.935793457031250000e+02
8.932810058593750000e+02
8.894082031250000000e+02
8.796026000976562500e+02
8.654989624023437500e+02
8.564525146484375000e+02
8.689139404296875000e+02
9.198559570312500000e+02
1.015114624023437500e+03
1.139947143554687500e+03
1.259988891601562500e+03
1.334794921875000000e+03
1.337252563476562500e+03
1.267297607421875000e+03
1.151279785156250000e+03
1.027888427734375000e+03
9.298479003906250000e+02
8.718666992187500000e+02
8.503095703125000000e+02
8.515338134765625000e+02
8.614438476562500000e+02
8.710075683593750000e+02
8.771386108398437500e+02
8.801674804687500000e+02
8.812634887695312500e+02
8.812868041992187500e+02
8.807376098632812500e+02
8.800493164062500000e+02
8.797347412109375000e+02
8.801593017578125000e+02
8.812827758789062500e+02
8.826319580078125000e+02
8.836098022460937500e+02
8.839974365234375000e+02
8.840379028320312500e+02
8.841955566406250000e+02
8.847657470703125000e+02
8.855044555664062500e+02
8.857883911132812500e+02
8.851590576171875000e+02
8.837170410156250000e+02
8.823696289062500000e+02
8.827777099609375000e+02
8.868408203125000000e+02
8.959836425781250000e+02
9.105209960937500000e+02
9.295672607421875000e+02
9.515726928710937500e+02
9.749535522460937500e+02
9.984575805664062500e+02
1.021143676757812500e+03
1.042079101562500000e+03
1.060303710937500000e+03
1.075441162109375000e+03
1.088138183593750000e+03
1.099578613281250000e+03
1.110547729492187500e+03
1.120737426757812500e+03
1.128813964843750000e+03
1.133230102539062500e+03
1.132967163085937500e+03
1.127903686523437500e+03
1.118643676757812500e+03
1.105876464843750000e+03
1.090016845703125000e+03
1.071182495117187500e+03
1.049275878906250000e+03
1.024299926757812500e+03
9.968279418945312500e+02
9.682150268554687500e+02
9.404405517578125000e+02
9.156402587890625000e+02
8.956235961914062500e+02
8.813389282226562500e+02
8.726666870117187500e+02
8.684555664062500000e+02
8.671085815429687500e+02
8.671696166992187500e+02
8.676830444335937500e+02
8.681871337890625000e+02
8.685164184570312500e+02
8.686429443359375000e+02
8.687459106445312500e+02
8.691008911132812500e+02
8.699247436523437500e+02
8.711884765625000000e+02
8.726593627929687500e+02
8.739619750976562500e+02
8.748930664062500000e+02
8.753920288085937500e+02
8.756295776367187500e+02
8.759641723632812500e+02
8.767225341796875000e+02
8.779186401367187500e+02
8.792528076171875000e+02
8.802598876953125000e+02
8.807059936523437500e+02
8.805929565429687500e+02
8.800899047851562500e+02
8.794327392578125000e+02
8.789349365234375000e+02
8.789332275390625000e+02
8.795584716796875000e+02
8.807938232421875000e+02
8.821173095703125000e+02
8.829461669921875000e+02
8.830888061523437500e+02
8.830630493164062500e+02
8.836590576171875000e+02
8.853491821289062500e+02
8.878475952148437500e+02
8.903424682617187500e+02
8.920100097656250000e+02
8.925499267578125000e+02
8.922032470703125000e+02
8.914644165039062500e+02
8.907578735351562500e+02
8.906453247070312500e+02
8.920908203125000000e+02
8.965158691406250000e+02
9.053151855468750000e+02
9.191295166015625000e+02
9.373613891601562500e+02
9.581503906250000000e+02
9.787546386718750000e+02
9.960559082031250000e+02
1.007192504882812500e+03
1.010301025390625000e+03
1.004922668457031250e+03
9.920316772460937500e+02
9.736866455078125000e+02
9.526196289062500000e+02
9.317260742187500000e+02
9.135828247070312500e+02
9.000814819335937500e+02
8.918455810546875000e+02
8.881166381835937500e+02
8.871270751953125000e+02
8.871758422851562500e+02
8.873308105468750000e+02
8.874227294921875000e+02
8.875673217773437500e+02
8.878328857421875000e+02
8.881405639648437500e+02
8.884558105468750000e+02
8.889569091796875000e+02
8.899104003906250000e+02
8.913078613281250000e+02
8.924583740234375000e+02
8.916612548828125000e+02
8.863917236328125000e+02
8.752122192382812500e+02
8.616264038085937500e+02
8.570516357421875000e+02
8.788842163085937500e+02
9.423111572265625000e+02
1.048252929687500000e+03
1.175833007812500000e+03
1.287157104492187500e+03
1.343596435546875000e+03
1.324822631835937500e+03
1.238882324218750000e+03
1.117321533203125000e+03
9.988240966796875000e+02
9.119089965820312500e+02
8.658103637695312500e+02
8.529530029296875000e+02
8.583764038085937500e+02
8.687205200195312500e+02
8.766578369140625000e+02
8.806879272460937500e+02
8.820504760742187500e+02
8.821925048828125000e+02
8.820097045898437500e+02
8.818388061523437500e+02
8.818479003906250000e+02
8.820869750976562500e+02
8.825678710937500000e+02
8.831813964843750000e+02
8.837412719726562500e+02
8.840675048828125000e+02
8.841384277343750000e+02
8.841901855468750000e+02
8.845646362304687500e+02
8.854035034179687500e+02
8.864284057617187500e+02
8.871060180664062500e+02
8.873523559570312500e+02
8.882192382812500000e+02
8.917937011718750000e+02
9.002142333984375000e+02
9.144295043945312500e+02
9.337651977539062500e+02
9.565278930664062500e+02
9.810124511718750000e+02
1.006080810546875000e+03
1.030815551757812500e+03
1.054017456054687500e+03
1.074293701171875000e+03
1.090787841796875000e+03
1.103678100585937500e+03
1.113665405273437500e+03
1.121185791015625000e+03
1.125961669921875000e+03
1.127250732421875000e+03
1.124304809570312500e+03
1.116845092773437500e+03
1.104644042968750000e+03
1.087146972656250000e+03
1.063749267578125000e+03
1.034743530273437500e+03
1.001762023925781250e+03
9.678323974609375000e+02
9.363671264648437500e+02
9.101123046875000000e+02
8.905900268554687500e+02
8.779111938476562500e+02
8.711781005859375000e+02
8.689069213867187500e+02
8.694189453125000000e+02
8.710708618164062500e+02
8.728454589843750000e+02
8.743441772460937500e+02
8.755885620117187500e+02
8.766299438476562500e+02
8.773101196289062500e+02
8.773934326171875000e+02
8.770316772460937500e+02
8.765823974609375000e+02
8.764786376953125000e+02
8.769616699218750000e+02
8.779426269531250000e+02
8.790427856445312500e+02
8.799534912109375000e+02
8.806410522460937500e+02
8.812131347656250000e+02
8.818486328125000000e+02
8.826503906250000000e+02
8.835603637695312500e+02
8.843978881835937500e+02
8.849857177734375000e+02
8.852886352539062500e+02
8.853793334960937500e+02
8.853265991210937500e+02
8.851447753906250000e+02
8.849122924804687500e+02
8.848477783203125000e+02
8.851626586914062500e+02
8.859470825195312500e+02
8.869963989257812500e+02
8.878797607421875000e+02
8.883977050781250000e+02
8.886494140625000000e+02
8.889168090820312500e+02
8.893875732421875000e+02
8.899713745117187500e+02
8.904505004882812500e+02
8.906336669921875000e+02
8.904196166992187500e+02
8.897155151367187500e+02
8.885631103515625000e+02
8.876226806640625000e+02
8.884900512695312500e+02
8.934483642578125000e+02
9.043038940429687500e+02
9.212615356445312500e+02
9.425922851562500000e+02
9.651951293945312500e+02
9.857597656250000000e+02
1.001543762207031250e+03
1.010632568359375000e+03
1.011951782226562500e+03
1.005164306640625000e+03
9.909146118164062500e+02
9.710318603515625000e+02
9.484652099609375000e+02
9.268018188476562500e+02
9.091419067382812500e+02
8.972253417968750000e+02
8.909192504882812500e+02
8.886616821289062500e+02
8.884566040039062500e+02
8.888674926757812500e+02
8.893356933593750000e+02
8.897586669921875000e+02
8.900765380859375000e+02
8.902539672851562500e+02
8.903269653320312500e+02
8.905797119140625000e+02
8.909968261718750000e+02
8.906498413085937500e+02
8.868460693359375000e+02
8.770734863281250000e+02
8.618242797851562500e+02
8.502713623046875000e+02
8.613888549804687500e+02
9.153687744140625000e+02
1.017850708007812500e+03
1.148193969726562500e+03
1.264246459960937500e+03
1.321896972656250000e+03
1.299159545898437500e+03
1.208088134765625000e+03
1.086467041015625000e+03
9.757127075195312500e+02
9.012821655273437500e+02
8.666268920898437500e+02
8.605809326171875000e+02
8.672462158203125000e+02
8.751009521484375000e+02
8.793921508789062500e+02
8.804313354492187500e+02
8.801752319335937500e+02
8.800727539062500000e+02
8.810477294921875000e+02
8.829003906250000000e+02
8.849086914062500000e+02
8.862832641601562500e+02
8.865835571289062500e+02
8.859381713867187500e+02
8.849392700195312500e+02
8.843379516601562500e+02
8.845482788085937500e+02
8.853621215820312500e+02
8.862337646484375000e+02
8.867506103515625000e+02
8.869027099609375000e+02
8.869160156250000000e+02
8.871139526367187500e+02
8.879882812500000000e+02
8.904612426757812500e+02
8.959267578125000000e+02
9.058660888671875000e+02
9.209406738281250000e+02
9.404936523437500000e+02
9.628130493164062500e+02
9.860341796875000000e+02
1.008816406250000000e+03
1.030399291992187500e+03
1.050195190429687500e+03
1.067676269531250000e+03
1.082636230468750000e+03
1.095387939453125000e+03
1.106478027343750000e+03
1.116077148437500000e+03
1.123721191406250000e+03
1.128524780273437500e+03
1.129892211914062500e+03
1.127622314453125000e+03
1.121929321289062500e+03
1.112503662109375000e+03
1.098250000000000000e+03
1.077943115234375000e+03
1.051372558593750000e+03
1.019977233886718750e+03
9.864370117187500000e+02
9.538553466796875000e+02
9.249703369140625000e+02
9.015724487304687500e+02
8.844441528320312500e+02
8.733747558593750000e+02
8.673049316406250000e+02
8.647073974609375000e+02
8.639987792968750000e+02
8.641978149414062500e+02
8.648236083984375000e+02
8.657629394531250000e+02
8.669260864257812500e+02
8.682484741210937500e+02
8.698250732421875000e+02
8.718273925781250000e+02
8.743337402343750000e+02
8.770390014648437500e+02
8.793038940429687500e+02
8.805293579101562500e+02
8.804321289062500000e+02
8.793047485351562500e+02
8.779140625000000000e+02
8.771298828125000000e+02
8.774249267578125000e+02
8.787357788085937500e+02
8.806277465820312500e+02
8.826330566406250000e+02
8.843381958007812500e+02
8.855292968750000000e+02
8.860711669921875000e+02
8.860109252929687500e+02
8.855662231445312500e+02
8.851317138671875000e+02
8.850135498046875000e+02
8.853297729492187500e+02
8.859683227539062500e+02
8.866533813476562500e+02
8.871463012695312500e+02
8.873842773437500000e+02
8.874968872070312500e+02
8.876334228515625000e+02
8.878392944335937500e+02
8.879663085937500000e+02
8.879024658203125000e+02
8.876358642578125000e+02
8.875441894531250000e+02
8.884806518554687500e+02
8.918562011718750000e+02
8.992984619140625000e+02
9.119355468750000000e+02
9.297257690429687500e+02
9.510144653320312500e+02
9.728505249023437500e+02
9.918464355468750000e+02
1.005218139648437500e+03
1.011338745117187500e+03
1.009825439453125000e+03
1.001210754394531250e+03
9.866545410156250000e+02
9.678818969726562500e+02
9.471104125976562500e+02
9.268125000000000000e+02
9.093395996093750000e+02
8.963999023437500000e+02
8.885555419921875000e+02
8.852448730468750000e+02
8.850656738281250000e+02
8.862870483398437500e+02
8.875336914062500000e+02
8.882032470703125000e+02
8.884233398437500000e+02
8.886488647460937500e+02
8.893193969726562500e+02
8.903334350585937500e+02
8.909368896484375000e+02
8.896889038085937500e+02
8.845442504882812500e+02
8.739916381835937500e+02
8.599032592773437500e+02
8.508300781250000000e+02
8.619446411132812500e+02
9.096161499023437500e+02
1.000893310546875000e+03
1.123906127929687500e+03
1.247003662109375000e+03
1.330284545898437500e+03
1.344079956054687500e+03
1.283919433593750000e+03
1.172367553710937500e+03
1.047330932617187500e+03
9.438586425781250000e+02
8.803228759765625000e+02
8.555246582031250000e+02
8.559176635742187500e+02
8.659591674804687500e+02
8.751060180664062500e+02
8.798893432617187500e+02
8.813682250976562500e+02
8.816297607421875000e+02
8.819160156250000000e+02
8.825443725585937500e+02
8.833894653320312500e+02
8.842539062500000000e+02
8.850338745117187500e+02
8.857117309570312500e+02
8.862603759765625000e+02
8.866809082031250000e+02
8.869216918945312500e+02
8.869255981445312500e+02
8.866284179687500000e+02
8.860769042968750000e+02
8.856091308593750000e+02
8.854563598632812500e+02
8.856503295898437500e+02
8.860260009765625000e+02
8.863803710937500000e+02
8.868631591796875000e+02
8.880870971679687500e+02
8.913229370117187500e+02
8.981416625976562500e+02
9.097897338867187500e+02
9.265020141601562500e+02
9.472977294921875000e+02
9.702556762695312500e+02
9.934633789062500000e+02
1.015562561035156250e+03
1.035984375000000000e+03
1.054445312500000000e+03
1.070771972656250000e+03
1.084922119140625000e+03
1.097030761718750000e+03
1.107330200195312500e+03
1.115772460937500000e+03
1.122074951171875000e+03
1.125880126953125000e+03
1.126919921875000000e+03
1.124894409179687500e+03
1.119323486328125000e+03
1.109428222656250000e+03
1.094664794921875000e+03
1.075188354492187500e+03
1.052011352539062500e+03
1.026496948242187500e+03
9.998039550781250000e+02
9.727657470703125000e+02
9.462902221679687500e+02
9.218464355468750000e+02
9.013369750976562500e+02
8.863720703125000000e+02
8.774167480468750000e+02
8.734622192382812500e+02
8.726257324218750000e+02
8.730971069335937500e+02
8.737236938476562500e+02
8.740673828125000000e+02
8.740379028320312500e+02
8.736511840820312500e+02
8.730399169921875000e+02
8.724655151367187500e+02
8.722024536132812500e+02
8.723309326171875000e+02
8.727728881835937500e+02
8.734837036132812500e+02
8.745895996093750000e+02
8.762179565429687500e+02
8.781677856445312500e+02
8.798976440429687500e+02
8.808449707031250000e+02
8.808833007812500000e+02
8.805144042968750000e+02
8.805245971679687500e+02
8.813853759765625000e+02
8.828724975585937500e+02
8.843842773437500000e+02
8.853108520507812500e+02
8.854269409179687500e+02
8.847719116210937500e+02
8.834989624023437500e+02
8.819494018554687500e+02
8.807237548828125000e+02
8.805552368164062500e+02
8.818724365234375000e+02
8.844849243164062500e+02
8.875529174804687500e+02
8.901336669921875000e+02
8.916915893554687500e+02
8.922434692382812500e+02
8.921843261718750000e+02
8.918872680664062500e+02
8.914562988281250000e+02
8.910039672851562500e+02
8.905986938476562500e+02
8.903182983398437500e+02
8.904439086914062500e+02
8.917515869140625000e+02
8.957684326171875000e+02
9.042234497070312500e+02
9.181287841796875000e+02
9.369668579101562500e+02
9.585020751953125000e+02
9.795227661132812500e+02
9.968209838867187500e+02
1.008065795898437500e+03
1.011931335449218750e+03
1.007915527343750000e+03
9.963519287109375000e+02
9.785283813476562500e+02
9.567728881835937500e+02
9.342904663085937500e+02
9.144020996093750000e+02
8.996658325195312500e+02
8.910448608398437500e+02
8.877981567382812500e+02
8.880883178710937500e+02
8.898163452148437500e+02
8.914304809570312500e+02
8.921888427734375000e+02
8.921060180664062500e+02
8.916063842773437500e+02
8.912008056640625000e+02
8.911770629882812500e+02
8.914660034179687500e+02
8.918387451171875000e+02
8.921452026367187500e+02
8.919608764648437500e+02
8.901281127929687500e+02
8.844128417968750000e+02
8.731635742187500000e+02
8.590773315429687500e+02
8.524174194335937500e+02
8.698380737304687500e+02
9.272295532226562500e+02
1.027959594726562500e+03
1.154414184570312500e+03
1.270655883789062500e+03
1.337050048828125000e+03
1.329523559570312500e+03
1.251828979492187500e+03
1.133052978515625000e+03
1.012375183105468750e+03
9.207998046875000000e+02
8.701564941406250000e+02
8.542418823242187500e+02
8.581251220703125000e+02
8.678728027343750000e+02
8.756835327148437500e+02
8.799615478515625000e+02
8.819833984375000000e+02
8.830372924804687500e+02
8.835397949218750000e+02
8.834305419921875000e+02
8.828249511718750000e+02
8.822039184570312500e+02
8.820983276367187500e+02
8.827394409179687500e+02
8.839678955078125000e+02
8.854167480468750000e+02
8.866600341796875000e+02
8.874197387695312500e+02
8.876235961914062500e+02
8.873828735351562500e+02
8.869723510742187500e+02
8.867185668945312500e+02
8.867344360351562500e+02
8.868543701171875000e+02
8.867556762695312500e+02
8.864823608398437500e+02
8.869382324218750000e+02
8.898699951171875000e+02
8.971769409179687500e+02
9.100565185546875000e+02
9.283511352539062500e+02
9.506427612304687500e+02
9.749028930664062500e+02
9.992049560546875000e+02
1.022092590332031250e+03
1.042763549804687500e+03
1.060871215820312500e+03
1.076455688476562500e+03
1.089938354492187500e+03
1.101801391601562500e+03
1.112200683593750000e+03
1.120777343750000000e+03
1.126881713867187500e+03
1.129846801757812500e+03
1.129238525390625000e+03
1.124768554687500000e+03
1.116299560546875000e+03
1.103729736328125000e+03
1.087163330078125000e+03
1.066905273437500000e+03
1.043447021484375000e+03
1.017434936523437500e+03
9.897134399414062500e+02
9.614277954101562500e+02
9.341994628906250000e+02
9.100115356445312500e+02
8.906858520507812500e+02
8.772561035156250000e+02
8.695219116210937500e+02
8.661938476562500000e+02
8.654797973632812500e+02
8.658659057617187500e+02
8.664362182617187500e+02
8.669036865234375000e+02
8.672797241210937500e+02
8.676741333007812500e+02
8.683729248046875000e+02
8.696393432617187500e+02
8.715390014648437500e+02
8.737336425781250000e+02
8.756450805664062500e+02
8.768235473632812500e+02
8.772546386718750000e+02
8.773662109375000000e+02
8.776173095703125000e+02
8.782247924804687500e+02
8.790850219726562500e+02
8.799539794921875000e+02
8.806638183593750000e+02
8.812870483398437500e+02
8.819317016601562500e+02
8.826664428710937500e+02
8.833740844726562500e+02
8.838311157226562500e+02
8.838795166015625000e+02
8.835557861328125000e+02
8.830505371093750000e+02
8.826460571289062500e+02
8.826300048828125000e+02
8.831243286132812500e+02
8.840522460937500000e+02
8.851059570312500000e+02
8.859765625000000000e+02
8.865873413085937500e+02
8.870545654296875000e+02
8.876641845703125000e+02
8.886840209960937500e+02
8.901471557617187500e+02
8.918106079101562500e+02
8.931919555664062500e+02
8.937930297851562500e+02
8.933375244140625000e+02
8.922218627929687500e+02
8.918933715820312500e+02
8.947427978515625000e+02
9.030438842773437500e+02
9.176730346679687500e+02
9.374938964843750000e+02
9.598098144531250000e+02
9.812698974609375000e+02
9.988923339843750000e+02
1.010365417480468750e+03
1.014130920410156250e+03
1.009441650390625000e+03
9.965935058593750000e+02
9.773195800781250000e+02
9.545186157226562500e+02
9.316652832031250000e+02
9.119647216796875000e+02
8.974944458007812500e+02
8.887488403320312500e+02
8.847412109375000000e+02
8.837178344726562500e+02
8.841030273437500000e+02
8.850765380859375000e+02
8.864846191406250000e+02
8.882824707031250000e+02
8.900967407226562500e+02
8.914053344726562500e+02
8.919519653320312500e+02
8.920100097656250000e+02
8.921893310546875000e+02
8.926860961914062500e+02
8.926312255859375000e+02
8.897706298828125000e+02
8.822951660156250000e+02
8.734556884765625000e+02
8.741546630859375000e+02
9.014047241210937500e+02
9.678088378906250000e+02
1.068204467773437500e+03
1.174889282226562500e+03
1.247872314453125000e+03
1.256149169921875000e+03
1.195844726562500000e+03
1.092260864257812500e+03
9.844750976562500000e+02
9.041471557617187500e+02
8.629681396484375000e+02
8.537838134765625000e+02
8.612531127929687500e+02
8.722192993164062500e+02
8.795848388671875000e+02
8.824975585937500000e+02
8.827215576171875000e+02
8.822149047851562500e+02
8.822037963867187500e+02
8.829863281250000000e+02
8.843328857421875000e+02
8.857890625000000000e+02
8.870222778320312500e+02
8.878739013671875000e+02
8.883807983398437500e+02
8.885664672851562500e+02
8.883520507812500000e+02
8.876994628906250000e+02
8.866942138671875000e+02
8.855997314453125000e+02
8.847821044921875000e+02
8.844669189453125000e+02
8.846181030273437500e+02
8.850703735351562500e+02
8.859892578125000000e+02
8.883918457031250000e+02
8.938876953125000000e+02
9.040499267578125000e+02
9.193862915039062500e+02
9.391007080078125000e+02
9.614880371093750000e+02
9.849647827148437500e+02
1.008565979003906250e+03
1.031616577148437500e+03
1.053241210937500000e+03
1.072549072265625000e+03
1.088959960937500000e+03
1.102413085937500000e+03
1.113154296875000000e+03
1.121318725585937500e+03
1.126802124023437500e+03
1.129184448242187500e+03
1.127872558593750000e+03
1.122010498046875000e+03
1.110672729492187500e+03
1.093267333984375000e+03
1.070186767578125000e+03
1.043012084960937500e+03
1.013835754394531250e+03
9.844399414062500000e+02
9.561776733398437500e+02
9.301630859375000000e+02
9.075216064453125000e+02
8.892908325195312500e+02
8.761680908203125000e+02
8.682896118164062500e+02
8.651023559570312500e+02
8.654773559570312500e+02
8.679602050781250000e+02
8.711091918945312500e+02
8.738419189453125000e+02
8.755399169921875000e+02
8.761060180664062500e+02
8.757698974609375000e+02
8.748702392578125000e+02
8.737429809570312500e+02
8.726687011718750000e+02
8.719470214843750000e+02
8.718268432617187500e+02
8.725269775390625000e+02
8.740949096679687500e+02
8.763443603515625000e+02
8.788505859375000000e+02
8.811531372070312500e+02
8.829605712890625000e+02
8.841810913085937500e+02
8.847717285156250000e+02
8.846755371093750000e+02
8.838660888671875000e+02
8.825066528320312500e+02
8.809160766601562500e+02
8.795258789062500000e+02
8.786591186523437500e+02
8.783754272460937500e+02
8.786586914062500000e+02
8.794033813476562500e+02
8.803496093750000000e+02
8.811088867187500000e+02
8.813981323242187500e+02
8.812446289062500000e+02
8.809976806640625000e+02
8.811797485351562500e+02
8.820933837890625000e+02
8.836142578125000000e+02
8.852357177734375000e+02
8.863320922851562500e+02
8.864869995117187500e+02
8.855432128906250000e+02
8.837240600585937500e+02
8.819925537109375000e+02
8.822886352539062500e+02
8.872476806640625000e+02
8.990039062500000000e+02
9.178701782226562500e+02
9.418138427734375000e+02
9.669911499023437500e+02
9.891989746093750000e+02
1.005024597167968750e+03
1.012547729492187500e+03
1.011306640625000000e+03
1.002002075195312500e+03
9.862620849609375000e+02
9.664655151367187500e+02
9.453060302734375000e+02
9.253717041015625000e+02
9.087638549804687500e+02
8.968115844726562500e+02
8.896956176757812500e+02
8.865744018554687500e+02
8.860172119140625000e+02
8.865617065429687500e+02
8.872586669921875000e+02
8.876958007812500000e+02
8.878065185546875000e+02
8.877021484375000000e+02
8.876592407226562500e+02
8.881204833984375000e+02
8.895522460937500000e+02
8.920499877929687500e+02
8.949622802734375000e+02
8.966499023437500000e+02
8.944456176757812500e+02
8.856675415039062500e+02
8.707996826171875000e+02
8.574288940429687500e+02
8.609191894531250000e+02
8.994221191406250000e+02
9.834146728515625000e+02
1.103877929687500000e+03
1.230612915039062500e+03
1.321518066406250000e+03
1.342281372070312500e+03
1.284652221679687500e+03
1.171146240234375000e+03
1.042904785156250000e+03
9.387821044921875000e+02
8.783584594726562500e+02
8.583792114257812500e+02
8.619960937500000000e+02
8.720189819335937500e+02
8.789413452148437500e+02
8.814282226562500000e+02
8.817258300781250000e+02
8.813688964843750000e+02
8.811539916992187500e+02
8.809078369140625000e+02
8.807072753906250000e+02
8.807420043945312500e+02
8.809286499023437500e+02
8.808701171875000000e+02
8.802390747070312500e+02
8.791254272460937500e+02
8.781942749023437500e+02
8.782835083007812500e+02
8.797858886718750000e+02
8.823558959960937500e+02
8.852770385742187500e+02
8.879230957031250000e+02
8.900718383789062500e+02
8.917479248046875000e+02
8.931403198242187500e+02
