6.418475390625000000e+04
1.180447656250000000e+05
1.442930937500000000e+05
1.174837656250000000e+05
6.363085156250000000e+04
3.652632421875000000e+04
6.403524609375000000e+04
1.179800703125000000e+05
1.445564062500000000e+05
1.180382578125000000e+05
6.415780468750000000e+04
3.667473437500000000e+04
6.365676171875000000e+04
1.171420390625000000e+05
1.434200156250000000e+05
1.167430703125000000e+05
6.281574609375000000e+04
3.544326953125000000e+04
6.273897656250000000e+04
1.167089140625000000e+05
1.434596718750000000e+05
1.169908515625000000e+05
6.289144531250000000e+04
3.574013281250000000e+04
6.192146875000000000e+04
1.125543828125000000e+05
1.373181406250000000e+05
1.186690625000000000e+05
8.851288281250000000e+04
8.804319531250000000e+04
1.192867578125000000e+05
1.408527343750000000e+05
1.195362421875000000e+05
6.483133203125000000e+04
1.891767578125000000e+04
1.412099121093750000e+04
4.441971093750000000e+04
7.343078125000000000e+04
7.438971093750000000e+04
4.768982421875000000e+04
2.063688476562500000e+04
2.096946679687500000e+04
4.689799218750000000e+04
7.048621093750000000e+04
6.759842968750000000e+04
4.595451171875000000e+04
3.877737500000000000e+04
7.036114062500000000e+04
1.208454843750000000e+05
1.446915468750000000e+05
1.174700312500000000e+05
6.421289843750000000e+04
3.656562500000000000e+04
6.340097265625000000e+04
1.169185234375000000e+05
1.433836562500000000e+05
1.168650937500000000e+05
6.291899609375000000e+04
3.601697656250000000e+04
6.232511718750000000e+04
1.128443046875000000e+05
1.372407187500000000e+05
1.181218359375000000e+05
8.761209375000000000e+04
8.705635156250000000e+04
1.184578359375000000e+05
1.402552656250000000e+05
1.191043671875000000e+05
6.452191406250000000e+04
1.879582031250000000e+04
1.424254785156250000e+04
4.466560937500000000e+04
7.354757031250000000e+04
7.424760156250000000e+04
4.741094140625000000e+04
2.047546093750000000e+04
2.100930664062500000e+04
4.695520703125000000e+04
7.092811718750000000e+04
6.693018750000000000e+04
4.245045703125000000e+04
3.221882812500000000e+04
6.842768750000000000e+04
1.389478750000000000e+05
1.938608281250000000e+05
1.907306562500000000e+05
1.374180156250000000e+05
8.561014062500000000e+04
8.140501562500000000e+04
1.149809921875000000e+05
1.368806875000000000e+05
1.133668515625000000e+05
6.213153906250000000e+04
3.561027734375000000e+04
6.240873046875000000e+04
1.165297890625000000e+05
1.434605156250000000e+05
1.172864375000000000e+05
6.358123046875000000e+04
3.609446875000000000e+04
6.310117187500000000e+04
1.163343984375000000e+05
1.443720781250000000e+05
1.217770703125000000e+05
7.225937500000000000e+04
4.087710546875000000e+04
4.758682031250000000e+04
6.857709375000000000e+04
7.103459375000000000e+04
4.731517578125000000e+04
2.131992773437500000e+04
2.081387500000000000e+04
4.763517968750000000e+04
7.421447656250000000e+04
7.328628125000000000e+04
4.434850000000000000e+04
1.405047656250000000e+04
1.878678710937500000e+04
6.461333203125000000e+04
1.191456718750000000e+05
1.401530625000000000e+05
1.182434062500000000e+05
8.685673437500000000e+04
8.752008593750000000e+04
1.181086562500000000e+05
1.371921406250000000e+05
1.127011796875000000e+05
6.215458593750000000e+04
3.594288671875000000e+04
6.297221875000000000e+04
1.169527343750000000e+05
1.433781562500000000e+05
1.167900625000000000e+05
6.322917578125000000e+04
3.645047656250000000e+04
6.417205468750000000e+04
1.174447031250000000e+05
1.446221562500000000e+05
1.207445859375000000e+05
7.030089843750000000e+04
3.880575000000000000e+04
4.603469140625000000e+04
6.826142187500000000e+04
7.019297656250000000e+04
4.369520312500000000e+04
1.444103222656250000e+04
1.853980664062500000e+04
6.577263281250000000e+04
1.239768906250000000e+05
1.474894375000000000e+05
1.184447343750000000e+05
6.366205078125000000e+04
3.705248046875000000e+04
6.284623046875000000e+04
1.135487031250000000e+05
1.368515625000000000e+05
1.148545234375000000e+05
8.109039062500000000e+04
8.568649218750000000e+04
1.365400625000000000e+05
1.871438125000000000e+05
1.871826875000000000e+05
1.368034687500000000e+05
8.640460937500000000e+04
8.157430468750000000e+04
1.162091093750000000e+05
1.406620781250000000e+05
1.202574843750000000e+05
6.499720703125000000e+04
1.915159375000000000e+04
1.437904296875000000e+04
4.464786328125000000e+04
7.362168750000000000e+04
7.458609375000000000e+04
4.793561718750000000e+04
2.090394726562500000e+04
2.115658398437500000e+04
4.692509765625000000e+04
7.037543750000000000e+04
6.750842968750000000e+04
4.603135156250000000e+04
3.902430859375000000e+04
7.054025781250000000e+04
1.205889375000000000e+05
1.437996562500000000e+05
1.161309921875000000e+05
6.291342578125000000e+04
3.574133984375000000e+04
6.314012890625000000e+04
1.169801484375000000e+05
1.434548437500000000e+05
1.167925078125000000e+05
6.273445312500000000e+04
3.579050000000000000e+04
6.212536718750000000e+04
1.126982500000000000e+05
1.372407031250000000e+05
1.184221093750000000e+05
8.830287500000000000e+04
8.801265625000000000e+04
1.193607343750000000e+05
1.408154531250000000e+05
1.192638984375000000e+05
6.444974218750000000e+04
1.869805078125000000e+04
1.420948437500000000e+04
4.468037500000000000e+04
7.420026562500000000e+04
7.403817968750000000e+04
4.434644140625000000e+04
1.401846875000000000e+04
1.882415429687500000e+04
6.479664453125000000e+04
1.202176406250000000e+05
1.407403906250000000e+05
1.163087578125000000e+05
8.162323437500000000e+04
8.639517968750000000e+04
1.367737031250000000e+05
1.871381718750000000e+05
1.870389687500000000e+05
1.363308125000000000e+05
8.539646093750000000e+04
8.083668750000000000e+04
1.147494218750000000e+05
1.369093281250000000e+05
1.135869765625000000e+05
6.253536328125000000e+04
3.616790625000000000e+04
6.294569140625000000e+04
1.168442031250000000e+05
1.434438750000000000e+05
1.170973906250000000e+05
6.359779296875000000e+04
3.664842578125000000e+04
6.416267187500000000e+04
1.174117734375000000e+05
1.447629218750000000e+05
1.210439218750000000e+05
7.053153125000000000e+04
3.876160546875000000e+04
4.575512109375000000e+04
6.800749218750000000e+04
7.019667968750000000e+04
4.392735937500000000e+04
1.464401757812500000e+04
1.848943945312500000e+04
6.549335937500000000e+04
1.237003593750000000e+05
1.474047031250000000e+05
1.185070546875000000e+05
6.365902343750000000e+04
3.684350390625000000e+04
6.251744921875000000e+04
1.127049062500000000e+05
1.371274218750000000e+05
1.181612500000000000e+05
8.771807031250000000e+04
8.774882812500000000e+04
1.182323437500000000e+05
1.371895937500000000e+05
1.127206015625000000e+05
6.246282421875000000e+04
3.671203125000000000e+04
6.346516015625000000e+04
1.183048281250000000e+05
1.472519843750000000e+05
1.236173828125000000e+05
6.544666015625000000e+04
1.844247460937500000e+04
1.459885253906250000e+04
4.391754687500000000e+04
7.023401562500000000e+04
6.807225000000000000e+04
4.581496093750000000e+04
3.880317578125000000e+04
7.055768750000000000e+04
1.210567968750000000e+05
1.447574843750000000e+05
1.173906484375000000e+05
6.414171875000000000e+04
3.664671484375000000e+04
6.361588281250000000e+04
1.171082500000000000e+05
1.434144375000000000e+05
1.167690156250000000e+05
6.285490234375000000e+04
3.609773437500000000e+04
6.249794531250000000e+04
1.135713828125000000e+05
1.369237343750000000e+05
1.148205156250000000e+05
8.097380468750000000e+04
8.555942187500000000e+04
1.364666250000000000e+05
1.871270625000000000e+05
1.872057343750000000e+05
1.368267343750000000e+05
8.639592187500000000e+04
8.153209375000000000e+04
1.161590546875000000e+05
1.406304531250000000e+05
1.202341718750000000e+05
6.493422265625000000e+04
1.899710546875000000e+04
1.412282617187500000e+04
4.433633984375000000e+04
7.394125000000000000e+04
7.409431250000000000e+04
4.463069140625000000e+04
1.423443359375000000e+04
1.877346679687500000e+04
6.454748828125000000e+04
1.193663906250000000e+05
1.409052968750000000e+05
1.194013906250000000e+05
8.798547656250000000e+04
8.822598437500000000e+04
1.183404765625000000e+05
1.371717187500000000e+05
1.126156250000000000e+05
6.199327343750000000e+04
3.562094921875000000e+04
6.258207421875000000e+04
1.167068281250000000e+05
1.434333906250000000e+05
1.169748203125000000e+05
6.310463281250000000e+04
3.567434765625000000e+04
6.284901171875000000e+04
1.160914062500000000e+05
1.437632812500000000e+05
1.205038984375000000e+05
7.039210937500000000e+04
3.886220703125000000e+04
4.592255859375000000e+04
6.745945312500000000e+04
7.031592187500000000e+04
4.675983593750000000e+04
2.085076171875000000e+04
2.049000585937500000e+04
4.749821484375000000e+04
7.423826562500000000e+04
7.348862500000000000e+04
4.484648828125000000e+04
1.490413378906250000e+04
1.919761523437500000e+04
6.575462500000000000e+04
1.228686875000000000e+05
1.472131406250000000e+05
1.213146640625000000e+05
7.022139843750000000e+04
3.938042187500000000e+04
4.493364843750000000e+04
6.335778125000000000e+04
6.301669531250000000e+04
4.400010156250000000e+04
3.811999218750000000e+04
6.963185156250000000e+04
1.202054531250000000e+05
1.435997187500000000e+05
1.159729531250000000e+05
6.298665234375000000e+04
3.629291015625000000e+04
6.413507812500000000e+04
1.180591796875000000e+05
1.442587968750000000e+05
1.173645234375000000e+05
6.349560937500000000e+04
3.648855468750000000e+04
6.415228515625000000e+04
1.182000859375000000e+05
1.447680156250000000e+05
1.181266562500000000e+05
6.410405468750000000e+04
3.655648437500000000e+04
6.367426562500000000e+04
1.175599531250000000e+05
1.443862968750000000e+05
1.181222812500000000e+05
6.421517968750000000e+04
3.645448437500000000e+04
6.320223828125000000e+04
1.167480546875000000e+05
1.433216093750000000e+05
1.168670625000000000e+05
6.286021484375000000e+04
3.582854687500000000e+04
6.207663281250000000e+04
1.126921640625000000e+05
1.372826718750000000e+05
1.182980625000000000e+05
8.775700000000000000e+04
8.705358593750000000e+04
1.183487187500000000e+05
1.401919687500000000e+05
1.191927421875000000e+05
6.471013281250000000e+04
1.892511718750000000e+04
1.421256347656250000e+04
4.453975781250000000e+04
7.349457812500000000e+04
7.437634375000000000e+04
4.766682812500000000e+04
2.069588671875000000e+04
2.108856054687500000e+04
4.694630859375000000e+04
7.035756250000000000e+04
6.739146875000000000e+04
4.589345312500000000e+04
3.900040625000000000e+04
7.067359375000000000e+04
1.207894375000000000e+05
1.439470000000000000e+05
1.162061796875000000e+05
6.300478515625000000e+04
3.592505468750000000e+04
6.337907812500000000e+04
1.171488593750000000e+05
1.434695781250000000e+05
1.167068281250000000e+05
6.269201953125000000e+04
3.588679687500000000e+04
6.231565234375000000e+04
1.134710156250000000e+05
1.370001250000000000e+05
1.151881640625000000e+05
8.167289062500000000e+04
8.583553125000000000e+04
1.375251250000000000e+05
1.907371875000000000e+05
1.938671562500000000e+05
1.390467500000000000e+05
6.865010156250000000e+04
3.252232812500000000e+04
4.276420312500000000e+04
6.782272656250000000e+04
7.091075000000000000e+04
4.404817578125000000e+04
1.469563769531250000e+04
1.903962109375000000e+04
6.508539453125000000e+04
1.204257734375000000e+05
1.407997656250000000e+05
1.162905312500000000e+05
8.165370312500000000e+04
8.652578906250000000e+04
1.369351093750000000e+05
1.872148906250000000e+05
1.869913125000000000e+05
1.362383750000000000e+05
8.537929687500000000e+04
8.093103125000000000e+04
1.148699531250000000e+05
1.369258593750000000e+05
1.134534062500000000e+05
6.233365234375000000e+04
3.602769140625000000e+04
6.291770312500000000e+04
1.168607031250000000e+05
1.433915312500000000e+05
1.169372734375000000e+05
6.339954296875000000e+04
3.651331640625000000e+04
6.411632031250000000e+04
1.173830312500000000e+05
1.446632656250000000e+05
1.208686093750000000e+05
7.037321093750000000e+04
3.871641015625000000e+04
4.581934375000000000e+04
6.807071875000000000e+04
7.014157812500000000e+04
4.374196093750000000e+04
1.443008300781250000e+04
1.836212109375000000e+04
6.547799609375000000e+04
1.237261718750000000e+05
1.473944843750000000e+05
1.184618750000000000e+05
6.364928906250000000e+04
3.691984375000000000e+04
6.264357812500000000e+04
1.127833750000000000e+05
1.370947187500000000e+05
1.180546171875000000e+05
8.763982812500000000e+04
8.776232812500000000e+04
1.182995859375000000e+05
1.372090781250000000e+05
1.126321328125000000e+05
6.230571484375000000e+04
3.658142578125000000e+04
6.341311328125000000e+04
1.182931953125000000e+05
1.472013281250000000e+05
1.234994687500000000e+05
6.532023046875000000e+04
1.839776562500000000e+04
1.466157910156250000e+04
4.402009765625000000e+04
7.027709375000000000e+04
6.802326562500000000e+04
4.573486718750000000e+04
3.878100000000000000e+04
7.061598437500000000e+04
1.211285625000000000e+05
1.447573281250000000e+05
1.173081953125000000e+05
6.405205078125000000e+04
3.663501562500000000e+04
6.369205468750000000e+04
1.172015781250000000e+05
1.434512500000000000e+05
1.167446796875000000e+05
6.282903125000000000e+04
3.612517968750000000e+04
6.257616406250000000e+04
1.136423515625000000e+05
1.369320000000000000e+05
1.147659531250000000e+05
8.090806250000000000e+04
8.553275781250000000e+04
1.364741875000000000e+05
1.871080000000000000e+05
1.871035156250000000e+05
1.366559531250000000e+05
8.623748437500000000e+04
8.145612500000000000e+04
1.161488281250000000e+05
1.405940312500000000e+05
1.200986562500000000e+05
6.473169921875000000e+04
1.884367187500000000e+04
1.410464746093750000e+04
4.442194531250000000e+04
7.401318750000000000e+04
7.406916406250000000e+04
4.453647265625000000e+04
1.417204785156250000e+04
1.880584960937500000e+04
6.464662500000000000e+04
1.194592500000000000e+05
1.409625312500000000e+05
1.194609218750000000e+05
8.809666406250000000e+04
8.838207031250000000e+04
1.184752031250000000e+05
1.372227812500000000e+05
1.125893046875000000e+05
6.196177734375000000e+04
3.565453906250000000e+04
6.268037500000000000e+04
1.167984453125000000e+05
1.434425937500000000e+05
1.168950078125000000e+05
6.300400000000000000e+04
3.562900390625000000e+04
6.287080859375000000e+04
1.161253281250000000e+05
1.437478906250000000e+05
1.204368437500000000e+05
7.032806250000000000e+04
3.884966796875000000e+04
4.594782421875000000e+04
6.745709375000000000e+04
7.023678125000000000e+04
4.663133984375000000e+04
2.076672851562500000e+04
2.052943750000000000e+04
4.762863671875000000e+04
7.429466406250000000e+04
7.326898437500000000e+04
4.422063281250000000e+04
1.395707519531250000e+04
1.883839062500000000e+04
6.485225781250000000e+04
1.202581640625000000e+05
1.407310312500000000e+05
1.162649921875000000e+05
8.158765625000000000e+04
8.639389062500000000e+04
1.367936718750000000e+05
1.871613906250000000e+05
1.870877656250000000e+05
1.364588281250000000e+05
8.563514843750000000e+04
8.110308593750000000e+04
1.149022343750000000e+05
1.368575781250000000e+05
1.134588828125000000e+05
6.265917578125000000e+04
3.680628515625000000e+04
6.339571093750000000e+04
1.182307343750000000e+05
1.474650156250000000e+05
1.243266718750000000e+05
6.659610937500000000e+04
1.972038476562500000e+04
1.568215234375000000e+04
4.476973437500000000e+04
7.115709375000000000e+04
6.940257812500000000e+04
4.755257812500000000e+04
4.055708593750000000e+04
7.187351562500000000e+04
1.217696171875000000e+05
1.450156875000000000e+05
1.173894531250000000e+05
6.394150000000000000e+04
3.624463281250000000e+04
6.312032812500000000e+04
1.167357812500000000e+05
1.432935781250000000e+05
1.167881640625000000e+05
6.276502343750000000e+04
3.577016796875000000e+04
6.206603515625000000e+04
1.126792656250000000e+05
1.372072343750000000e+05
1.181549375000000000e+05
8.760564062500000000e+04
8.695959375000000000e+04
1.183165781250000000e+05
1.401618906250000000e+05
1.191052968750000000e+05
6.457341015625000000e+04
1.880956250000000000e+04
1.417508789062500000e+04
4.455955078125000000e+04
7.348400781250000000e+04
7.426155468750000000e+04
4.745504687500000000e+04
2.046512890625000000e+04
2.091341992187500000e+04
4.683563671875000000e+04
7.025453125000000000e+04
6.723285937500000000e+04
4.566633984375000000e+04
3.875162500000000000e+04
7.046616406250000000e+04
1.206458281250000000e+05
1.438261406250000000e+05
1.160464296875000000e+05
6.279621093750000000e+04
3.572861718750000000e+04
6.326471093750000000e+04
1.171128281250000000e+05
1.434266093750000000e+05
1.165778515625000000e+05
6.248998046875000000e+04
3.507118359375000000e+04
6.244867968750000000e+04
1.165473984375000000e+05
1.434775937500000000e+05
1.172710546875000000e+05
6.347750000000000000e+04
3.590122265625000000e+04
6.288182812500000000e+04
1.160913125000000000e+05
1.439281718750000000e+05
1.208487031250000000e+05
7.073200000000000000e+04
3.900991406250000000e+04
4.589214453125000000e+04
6.745560156250000000e+04
7.051420312500000000e+04
4.711751562500000000e+04
2.115323242187500000e+04
2.058951171875000000e+04
4.745786328125000000e+04
7.422140625000000000e+04
7.350695312500000000e+04
4.467863671875000000e+04
1.432776074218750000e+04
1.890948437500000000e+04
6.460873828125000000e+04
1.191380859375000000e+05
1.402496875000000000e+05
1.184394453125000000e+05
8.705207812500000000e+04
8.762845312500000000e+04
1.181426250000000000e+05
1.372420000000000000e+05
1.128271171875000000e+05
6.231749609375000000e+04
3.604873046875000000e+04
6.298228125000000000e+04
1.169303125000000000e+05
1.434267812500000000e+05
1.169386328125000000e+05
6.340022265625000000e+04
3.653930859375000000e+04
6.415539062500000000e+04
1.173945234375000000e+05
1.446170468750000000e+05
1.207753984375000000e+05
7.027853906250000000e+04
3.866376562500000000e+04
4.581240234375000000e+04
6.807145312500000000e+04
7.010707031250000000e+04
4.366478906250000000e+04
1.434496582031250000e+04
1.831182617187500000e+04
6.547303515625000000e+04
1.237329765625000000e+05
1.473630156250000000e+05
1.183668671875000000e+05
6.351397265625000000e+04
3.679726953125000000e+04
6.257093750000000000e+04
1.127391796875000000e+05
1.370105156250000000e+05
1.178774453125000000e+05
8.738894531250000000e+04
8.751920312500000000e+04
1.181361093750000000e+05
1.371279062500000000e+05
1.125792265625000000e+05
6.223656640625000000e+04
3.650389453125000000e+04
6.336200390625000000e+04
1.182700390625000000e+05
1.471566562500000000e+05
1.233740390625000000e+05
6.511087109375000000e+04
1.816991015625000000e+04
1.449372753906250000e+04
4.393515625000000000e+04
7.022874218750000000e+04
6.795106250000000000e+04
4.562428515625000000e+04
3.867042578125000000e+04
7.054649218750000000e+04
1.210994375000000000e+05
1.447296093750000000e+05
1.172501796875000000e+05
6.397073437500000000e+04
3.656908203125000000e+04
6.367100781250000000e+04
1.172149296875000000e+05
1.434533593750000000e+05
1.166964375000000000e+05
6.273528515625000000e+04
3.602959375000000000e+04
6.251724609375000000e+04
1.136167578125000000e+05
1.369047187500000000e+05
1.147143671875000000e+05
8.084726562500000000e+04
8.549453125000000000e+04
1.364685937500000000e+05
1.871124687500000000e+05
1.870868906250000000e+05
1.366075625000000000e+05
8.617292187500000000e+04
8.139900781250000000e+04
1.161109140625000000e+05
1.405637343750000000e+05
1.200545625000000000e+05
6.466398046875000000e+04
1.877261328125000000e+04
1.407052246093750000e+04
4.444336718750000000e+04
7.343595312500000000e+04
7.430675000000000000e+04
4.754233593750000000e+04
2.049773632812500000e+04
2.085589062500000000e+04
4.674359375000000000e+04
7.021004687500000000e+04
6.724892968750000000e+04
4.569891406250000000e+04
3.875194531250000000e+04
7.043721093750000000e+04
1.205778593750000000e+05
1.436285468750000000e+05
1.155956406250000000e+05
6.207799218750000000e+04
3.489657031250000000e+04
6.256321093750000000e+04
1.167147578125000000e+05
1.433724375000000000e+05
1.168103359375000000e+05
6.290203515625000000e+04
3.553648437500000000e+04
6.281249609375000000e+04
1.167223593750000000e+05
1.434629843750000000e+05
1.172258203125000000e+05
6.367494140625000000e+04
3.655424218750000000e+04
6.395016796875000000e+04
1.172580703125000000e+05
1.447909843750000000e+05
1.211942109375000000e+05
7.061819531250000000e+04
3.865989062500000000e+04
4.552519921875000000e+04
6.783019531250000000e+04
7.018793750000000000e+04
4.402227343750000000e+04
1.466682519531250000e+04
1.896422265625000000e+04
6.498492187500000000e+04
1.203483671875000000e+05
1.407637656250000000e+05
1.162684609375000000e+05
8.160983593750000000e+04
8.645757812500000000e+04
1.368777656250000000e+05
1.872040625000000000e+05
1.870244218750000000e+05
1.362742968750000000e+05
8.537642187500000000e+04
8.088832031250000000e+04
1.148269062500000000e+05
1.369233281250000000e+05
1.134881640625000000e+05
6.235900390625000000e+04
3.600132812500000000e+04
6.222419531250000000e+04
1.170459687500000000e+05
1.465030468750000000e+05
1.234774921875000000e+05
6.557380468750000000e+04
1.843367187500000000e+04
1.435415039062500000e+04
4.363378906250000000e+04
7.012021093750000000e+04
6.813673437500000000e+04
4.585317578125000000e+04
3.863953906250000000e+04
7.021423437500000000e+04
1.207274140625000000e+05
1.446058281250000000e+05
1.173831093750000000e+05
6.409744531250000000e+04
3.643589843750000000e+04
6.330075781250000000e+04
1.168700234375000000e+05
1.433502187500000000e+05
1.167741640625000000e+05
6.272742968750000000e+04
3.575850000000000000e+04
6.208712500000000000e+04
1.126940703125000000e+05
1.371713750000000000e+05
1.180644218750000000e+05
8.750122656250000000e+04
8.750084375000000000e+04
1.180439453125000000e+05
1.371235468750000000e+05
1.128892734375000000e+05
6.296392968750000000e+04
3.750796093750000000e+04
6.433714062500000000e+04
1.190190781250000000e+05
1.478138437500000000e+05
1.243244687500000000e+05
6.662667187500000000e+04
2.010798437500000000e+04
1.637227929687500000e+04
4.530377734375000000e+04
7.096300781250000000e+04
6.820984375000000000e+04
4.562399218750000000e+04
3.853189843750000000e+04
7.033528125000000000e+04
1.208975078125000000e+05
1.446157343750000000e+05
1.172091796875000000e+05
6.390547265625000000e+04
3.639364453125000000e+04
6.340995312500000000e+04
1.169560234375000000e+05
1.432285156250000000e+05
1.164392265625000000e+05
6.237464062500000000e+04
3.557840625000000000e+04
6.208704687500000000e+04
1.133287109375000000e+05
1.368430937500000000e+05
1.149280937500000000e+05
8.133035156250000000e+04
8.552042187500000000e+04
1.373212500000000000e+05
1.906199375000000000e+05
1.937294375000000000e+05
1.388088593750000000e+05
6.833202343750000000e+04
3.221108789062500000e+04
4.252206640625000000e+04
6.701348437500000000e+04
7.096293750000000000e+04
4.692805468750000000e+04
2.095443359375000000e+04
2.040936523437500000e+04
4.731506640625000000e+04
7.409526562500000000e+04
7.336050000000000000e+04
4.446642968750000000e+04
1.404918261718750000e+04
1.861639453125000000e+04
6.444753906250000000e+04
1.193096250000000000e+05
1.408555781250000000e+05
1.193373906250000000e+05
8.791779687500000000e+04
8.817759375000000000e+04
1.183201718750000000e+05
1.371685468750000000e+05
1.126170000000000000e+05
6.199987500000000000e+04
3.563639843750000000e+04
6.259641015625000000e+04
1.166968281250000000e+05
1.433846250000000000e+05
1.168967187500000000e+05
6.302015234375000000e+04
3.559987500000000000e+04
6.279092187500000000e+04
1.160608671875000000e+05
1.437857500000000000e+05
1.206026562500000000e+05
7.056533593750000000e+04
3.907465625000000000e+04
4.612732031250000000e+04
6.825411718750000000e+04
7.022486718750000000e+04
4.382553515625000000e+04
1.459007226562500000e+04
1.861326953125000000e+04
6.574842968750000000e+04
1.239254843750000000e+05
1.474963437500000000e+05
1.185209296875000000e+05
6.374242187500000000e+04
3.707039843750000000e+04
6.280303125000000000e+04
1.135046562500000000e+05
1.368469375000000000e+05
1.148630546875000000e+05
8.104617968750000000e+04
8.559727343750000000e+04
1.364872968750000000e+05
1.872050000000000000e+05
1.872590156250000000e+05
1.366117187500000000e+05
8.571625781250000000e+04
8.110549218750000000e+04
1.148766015625000000e+05
1.368597968750000000e+05
1.135236640625000000e+05
6.275871093750000000e+04
3.689237109375000000e+04
6.408659375000000000e+04
1.180245390625000000e+05
1.442543593750000000e+05
