3.112723876953125000e+03
3.217423095703125000e+03
3.367315429687500000e+03
3.468214599609375000e+03
3.535665039062500000e+03
3.693201660156250000e+03
4.047434326171875000e+03
4.564454589843750000e+03
5.063025878906250000e+03
5.365501953125000000e+03
5.448795410156250000e+03
5.443066894531250000e+03
5.480403808593750000e+03
5.545017089843750000e+03
5.479458984375000000e+03
5.150308593750000000e+03
4.592612304687500000e+03
3.996467773437500000e+03
3.556636718750000000e+03
3.330779541015625000e+03
3.231608642578125000e+03
3.149791992187500000e+03
3.063753662109375000e+03
3.036565673828125000e+03
3.114004150390625000e+03
3.241365478515625000e+03
3.299383544921875000e+03
3.226774169921875000e+03
3.092326171875000000e+03
3.029666259765625000e+03
3.114779052734375000e+03
3.286642578125000000e+03
3.404151123046875000e+03
3.382581542968750000e+03
3.271221191406250000e+03
3.199209228515625000e+03
3.248725585937500000e+03
3.367401611328125000e+03
3.427275878906250000e+03
3.366103515625000000e+03
3.258632324218750000e+03
3.234585693359375000e+03
3.335266357421875000e+03
3.462983398437500000e+03
3.482468017578125000e+03
3.371802734375000000e+03
3.244366210937500000e+03
3.230106201171875000e+03
3.336218017578125000e+03
3.442340820312500000e+03
3.428447265625000000e+03
3.305045654296875000e+03
3.201439941406250000e+03
3.230358154296875000e+03
3.369156738281250000e+03
3.481714111328125000e+03
3.461399658203125000e+03
3.341099853515625000e+03
3.251089843750000000e+03
3.278902832031250000e+03
3.377697265625000000e+03
3.423467529296875000e+03
3.361034912109375000e+03
3.259568847656250000e+03
3.240846191406250000e+03
3.344863037109375000e+03
3.481777099609375000e+03
3.521294921875000000e+03
3.427797607421875000e+03
3.301748046875000000e+03
3.281919921875000000e+03
3.414535644531250000e+03
3.601208251953125000e+03
3.693018066406250000e+03
3.635308593750000000e+03
3.516476806640625000e+03
3.475764404296875000e+03
3.566471679687500000e+03
3.696601562500000000e+03
3.726515380859375000e+03
3.617686279296875000e+03
3.477203857421875000e+03
3.450941406250000000e+03
3.573175292968750000e+03
3.727040771484375000e+03
3.761453369140625000e+03
3.643211669921875000e+03
3.481705322265625000e+03
3.414706787109375000e+03
3.472664306640625000e+03
3.558533447265625000e+03
3.560718994140625000e+03
3.470054443359375000e+03
3.381255126953125000e+03
3.384448974609375000e+03
3.463135009765625000e+03
3.508649658203125000e+03
3.439555908203125000e+03
3.298738525390625000e+03
3.213634521484375000e+03
3.275731933593750000e+03
3.438286865234375000e+03
3.551881835937500000e+03
3.508068603515625000e+03
3.346407714843750000e+03
3.216070312500000000e+03
3.232713867187500000e+03
3.362668457031250000e+03
3.456564453125000000e+03
3.404419433593750000e+03
3.248745361328125000e+03
3.136442138671875000e+03
3.169457519531250000e+03
3.301776367187500000e+03
3.389111328125000000e+03
3.342707275390625000e+03
3.214669921875000000e+03
3.135214599609375000e+03
3.171548095703125000e+03
3.258888183593750000e+03
3.279604980468750000e+03
3.198359863281250000e+03
3.098197753906250000e+03
3.085772216796875000e+03
3.173335937500000000e+03
3.264387207031250000e+03
3.257308593750000000e+03
3.160277587890625000e+03
3.077057861328125000e+03
3.110191650390625000e+03
3.251636230468750000e+03
3.379968261718750000e+03
3.373340332031250000e+03
3.232905517578125000e+03
3.089906738281250000e+03
3.085621337890625000e+03
3.236432128906250000e+03
3.408733398437500000e+03
3.448408203125000000e+03
3.332896728515625000e+03
3.188814697265625000e+03
3.163995361328125000e+03
3.282461181640625000e+03
3.417209960937500000e+03
3.426000976562500000e+03
3.296024658203125000e+03
3.152940429687500000e+03
3.129292724609375000e+03
3.231201416015625000e+03
3.343152099609375000e+03
3.358658935546875000e+03
3.287950683593750000e+03
3.232154785156250000e+03
3.267722900390625000e+03
3.364409667968750000e+03
3.419558105468750000e+03
3.374641845703125000e+03
3.274653076171875000e+03
3.223659179687500000e+03
3.274116210937500000e+03
3.366778564453125000e+03
3.389521484375000000e+03
3.299306396484375000e+03
3.174942382812500000e+03
3.139709716796875000e+03
3.242515625000000000e+03
3.401156005859375000e+03
3.479041992187500000e+03
3.417965820312500000e+03
3.291576171875000000e+03
3.229068603515625000e+03
3.289729248046875000e+03
3.399155273437500000e+03
3.426213623046875000e+03
3.323244873046875000e+03
3.182835937500000000e+03
3.147666992187500000e+03
3.263722412109375000e+03
3.424814941406250000e+03
3.476152099609375000e+03
3.372816406250000000e+03
3.222678222656250000e+03
3.174543701171875000e+03
3.263013671875000000e+03
3.375636230468750000e+03
3.378140625000000000e+03
3.258597900390625000e+03
3.134599609375000000e+03
3.124805175781250000e+03
3.225019287109375000e+03
3.318271728515625000e+03
3.303087646484375000e+03
3.200678466796875000e+03
3.121056884765625000e+03
3.153751953125000000e+03
3.274776123046875000e+03
3.371716308593750000e+03
3.359224609375000000e+03
3.266285156250000000e+03
3.205394531250000000e+03
3.260969726562500000e+03
3.397858886718750000e+03
3.489469482421875000e+03
3.446814697265625000e+03
3.313655273437500000e+03
3.226135009765625000e+03
3.276744873046875000e+03
3.415696777343750000e+03
3.492407958984375000e+03
3.411841796875000000e+03
3.236531005859375000e+03
3.128652343750000000e+03
3.187633544921875000e+03
3.348704833984375000e+03
3.449516357421875000e+03
3.399302001953125000e+03
3.262426757812500000e+03
3.181398681640625000e+03
3.224375732421875000e+03
3.319712646484375000e+03
3.342800292968750000e+03
3.261197998046875000e+03
3.165188232421875000e+03
3.175805664062500000e+03
3.311248535156250000e+03
3.458948242187500000e+03
3.486425048828125000e+03
3.377069824218750000e+03
3.248391845703125000e+03
3.239006835937500000e+03
3.374526855468750000e+03
3.539330322265625000e+03
3.590091796875000000e+03
3.494872314453125000e+03
3.355642578125000000e+03
3.300730712890625000e+03
3.362425781250000000e+03
3.444707031250000000e+03
3.437018310546875000e+03
3.336873291015625000e+03
3.253444335937500000e+03
3.288330566406250000e+03
3.418303222656250000e+03
3.507059814453125000e+03
3.446279052734375000e+03
3.270821289062500000e+03
3.127186035156250000e+03
3.128619628906250000e+03
3.243941162109375000e+03
3.332899414062500000e+03
3.295743408203125000e+03
3.172590332031250000e+03
3.093643798828125000e+03
3.139261962890625000e+03
3.253015136718750000e+03
3.302810302734375000e+03
3.224491943359375000e+03
3.091558349609375000e+03
3.038312988281250000e+03
3.129668212890625000e+03
3.293445312500000000e+03
3.390583007812500000e+03
3.353016113281250000e+03
3.248443359375000000e+03
3.204886718750000000e+03
3.281195556640625000e+03
3.395391845703125000e+03
3.410536621093750000e+03
3.287245361328125000e+03
3.141550292968750000e+03
3.142258056640625000e+03
3.344926269531250000e+03
3.642293457031250000e+03
3.879730224609375000e+03
4.029326904296875000e+03
4.221071289062500000e+03
4.592023437500000000e+03
5.110805664062500000e+03
5.564486816406250000e+03
5.743700195312500000e+03
5.628028808593750000e+03
5.378393554687500000e+03
5.149509277343750000e+03
4.928799804687500000e+03
4.583936523437500000e+03
4.053940429687500000e+03
3.467965820312500000e+03
3.056083984375000000e+03
2.954898437500000000e+03
3.089702148437500000e+03
3.245568115234375000e+03
3.258441650390625000e+03
3.142785156250000000e+03
3.043114501953125000e+03
3.085215576171875000e+03
3.245112548828125000e+03
3.379221923828125000e+03
3.371020263671875000e+03
3.249580322265625000e+03
3.155514892578125000e+03
3.194774169921875000e+03
3.334087402343750000e+03
3.430321044921875000e+03
3.385557861328125000e+03
3.248388183593750000e+03
3.162736816406250000e+03
3.219269775390625000e+03
3.358581542968750000e+03
3.432419921875000000e+03
3.359901611328125000e+03
3.207172119140625000e+03
3.118528076171875000e+03
3.167464355468750000e+03
3.287770507812500000e+03
3.346886474609375000e+03
3.287337890625000000e+03
3.177207763671875000e+03
3.134505615234375000e+03
3.202504882812500000e+03
3.304240966796875000e+03
3.327517578125000000e+03
3.247296630859375000e+03
3.152909179687500000e+03
3.159369628906250000e+03
3.290716796875000000e+03
3.448673828125000000e+03
3.508108642578125000e+03
3.442577148437500000e+03
3.350297851562500000e+03
3.350512207031250000e+03
3.462694824218750000e+03
3.574381835937500000e+03
3.560479248046875000e+03
3.419681640625000000e+03
3.284775390625000000e+03
3.294714111328125000e+03
3.450208740234375000e+03
3.610709472656250000e+03
3.633520507812500000e+03
3.519791992187500000e+03
3.405739013671875000e+03
3.416625488281250000e+03
3.535962402343750000e+03
3.627744140625000000e+03
3.589502929687500000e+03
3.462195800781250000e+03
3.378844238281250000e+03
3.420298339843750000e+03
3.528840332031250000e+03
3.576102050781250000e+03
3.505389160156250000e+03
3.391909423828125000e+03
3.365010986328125000e+03
3.479668945312500000e+03
3.656240234375000000e+03
3.750676269531250000e+03
3.692811035156250000e+03
3.554145996093750000e+03
3.477162109375000000e+03
3.541533691406250000e+03
3.680116699218750000e+03
3.746535644531250000e+03
3.666026855468750000e+03
3.511441406250000000e+03
3.426591308593750000e+03
3.474869628906250000e+03
3.575307861328125000e+03
3.588882080078125000e+03
3.475716552734375000e+03
3.338248046875000000e+03
3.310487548828125000e+03
3.410268798828125000e+03
3.513375488281250000e+03
3.485816406250000000e+03
3.328481933593750000e+03
3.173578613281250000e+03
3.146384521484375000e+03
3.236255615234375000e+03
3.315254882812500000e+03
3.279502929687500000e+03
3.159392578125000000e+03
3.082043701171875000e+03
3.140855712890625000e+03
3.296273193359375000e+03
3.407967529296875000e+03
3.371057617187500000e+03
3.221618896484375000e+03
3.102931152343750000e+03
3.134747314453125000e+03
3.295680419921875000e+03
3.441823486328125000e+03
3.448203613281250000e+03
3.329465087890625000e+03
3.217930419921875000e+03
3.225922363281250000e+03
3.334071044921875000e+03
3.412802734375000000e+03
3.365239990234375000e+03
3.230598388671875000e+03
3.145507080078125000e+03
3.204385009765625000e+03
3.356652832031250000e+03
3.454298583984375000e+03
3.401448730468750000e+03
3.249846435546875000e+03
3.145095703125000000e+03
3.177457275390625000e+03
3.291387939453125000e+03
3.353099609375000000e+03
3.296809570312500000e+03
3.187783691406250000e+03
3.142849609375000000e+03
3.199918212890625000e+03
3.282491699218750000e+03
3.293039550781250000e+03
3.223565917968750000e+03
3.161687255859375000e+03
3.200406494140625000e+03
3.344212890625000000e+03
3.496532714843750000e+03
3.545785156250000000e+03
3.470680664062500000e+03
3.362364746093750000e+03
3.339326904296875000e+03
3.428486816406250000e+03
3.527993652343750000e+03
3.514268066406250000e+03
3.380131103515625000e+03
3.252277343750000000e+03
3.262906982421875000e+03
3.405192626953125000e+03
3.533910400390625000e+03
3.511809326171875000e+03
3.353627929687500000e+03
3.208506347656250000e+03
3.209391113281250000e+03
3.341233642578125000e+03
3.461255615234375000e+03
3.449193847656250000e+03
3.324530761718750000e+03
3.213863037109375000e+03
3.214545898437500000e+03
3.295628417968750000e+03
3.338588867187500000e+03
3.277525634765625000e+03
3.169312500000000000e+03
3.134984863281250000e+03
3.226726318359375000e+03
3.365377441406250000e+03
3.417599853515625000e+03
3.334174804687500000e+03
3.201074707031250000e+03
3.152411865234375000e+03
3.243306152343750000e+03
3.392086425781250000e+03
3.460908935546875000e+03
3.391471435546875000e+03
3.261045898437500000e+03
3.203249023437500000e+03
3.279253662109375000e+03
3.410585693359375000e+03
3.460266113281250000e+03
3.375035888671875000e+03
3.241188720703125000e+03
3.196092773437500000e+03
3.286163818359375000e+03
3.414958740234375000e+03
3.443072265625000000e+03
3.334743652343750000e+03
3.193967041015625000e+03
3.157003662109375000e+03
3.250277099609375000e+03
3.364851806640625000e+03
3.376443847656250000e+03
3.276983886718750000e+03
3.177944824218750000e+03
3.187459472656250000e+03
3.292852294921875000e+03
3.374040771484375000e+03
3.335972167968750000e+03
3.213712158203125000e+03
3.136128662109375000e+03
3.199219726562500000e+03
3.366678222656250000e+03
3.501900634765625000e+03
3.499671142578125000e+03
3.387711425781250000e+03
3.297752197265625000e+03
3.338725341796875000e+03
3.484260009765625000e+03
3.593008056640625000e+03
3.553367187500000000e+03
3.402547363281250000e+03
3.289005615234375000e+03
3.319190429687500000e+03
3.441619384765625000e+03
3.502632812500000000e+03
3.413444091796875000e+03
3.249947998046875000e+03
3.175468505859375000e+03
3.269062744140625000e+03
3.438717041015625000e+03
3.513430419921875000e+03
3.418315917968750000e+03
3.246935302734375000e+03
3.161009765625000000e+03
3.225023925781250000e+03
3.347571044921875000e+03
3.385059570312500000e+03
3.299965087890625000e+03
3.188143554687500000e+03
3.177633544921875000e+03
3.286821533203125000e+03
3.399977050781250000e+03
3.386181152343750000e+03
3.237023437500000000e+03
3.078404052734375000e+03
3.050822998046875000e+03
3.176543701171875000e+03
3.335138916015625000e+03
3.383269042968750000e+03
3.294614501953125000e+03
3.179512695312500000e+03
3.171452636718750000e+03
3.293202880859375000e+03
3.428618164062500000e+03
3.445780761718750000e+03
3.334553710937500000e+03
3.216018066406250000e+03
3.212000732421875000e+03
3.315902832031250000e+03
3.397106201171875000e+03
3.344290283203125000e+03
3.187568115234375000e+03
3.077917724609375000e+03
3.152059814453125000e+03
3.412424316406250000e+03
3.743080810546875000e+03
4.047052734375000000e+03
4.331436523437500000e+03
4.670679199218750000e+03
5.076517089843750000e+03
5.430420410156250000e+03
5.572874511718750000e+03
5.460296875000000000e+03
5.214974609375000000e+03
5.000384765625000000e+03
4.868631835937500000e+03
4.712872070312500000e+03
4.394430664062500000e+03
3.910480712890625000e+03
3.425878417968750000e+03
3.140437500000000000e+03
3.124143798828125000e+03
3.255546142578125000e+03
3.340155029296875000e+03
3.286638671875000000e+03
3.172101318359375000e+03
3.138736816406250000e+03
3.233552001953125000e+03
3.355374755859375000e+03
3.363954833984375000e+03
3.235802246093750000e+03
3.089825683593750000e+03
3.064699951171875000e+03
3.174930175781250000e+03
3.298850097656250000e+03
3.313192382812500000e+03
3.219242187500000000e+03
3.132835205078125000e+03
3.155763916015625000e+03
3.267725585937500000e+03
3.348975097656250000e+03
3.307036621093750000e+03
3.178698242187500000e+03
3.092656738281250000e+03
3.153057373046875000e+03
3.328756591796875000e+03
3.472888183593750000e+03
3.463819091796875000e+03
3.329102050781250000e+03
3.220022949218750000e+03
3.258943603515625000e+03
3.409947509765625000e+03
3.510418457031250000e+03
3.448399658203125000e+03
3.286872802734375000e+03
3.197051269531250000e+03
3.281168457031250000e+03
3.466623291015625000e+03
3.576754150390625000e+03
3.511729003906250000e+03
3.344363037109375000e+03
3.243706542968750000e+03
3.304248535156250000e+03
3.455514892578125000e+03
3.541717285156250000e+03
3.485422119140625000e+03
3.364534179687500000e+03
3.319231933593750000e+03
3.399427001953125000e+03
3.513908203125000000e+03
3.535459472656250000e+03
3.446823242187500000e+03
3.352701660156250000e+03
3.373754150390625000e+03
3.516876464843750000e+03
3.664986572265625000e+03
3.693708984375000000e+03
3.594133300781250000e+03
3.476596435546875000e+03
3.463462158203125000e+03
3.573933349609375000e+03
3.707947509765625000e+03
3.750208007812500000e+03
3.684677978515625000e+03
3.604461425781250000e+03
3.612676025390625000e+03
3.712065673828125000e+03
3.790035644531250000e+03
3.736741699218750000e+03
3.569109863281250000e+03
3.425534179687500000e+03
3.429283935546875000e+03
3.558210449218750000e+03
3.660964843750000000e+03
3.616593750000000000e+03
3.457430419921875000e+03
3.331188232421875000e+03
3.348169433593750000e+03
3.472133789062500000e+03
3.563001464843750000e+03
3.526445556640625000e+03
3.401313476562500000e+03
3.310684326171875000e+03
3.329956298828125000e+03
3.407168945312500000e+03
3.421703125000000000e+03
3.321066406250000000e+03
3.185452636718750000e+03
3.148194335937500000e+03
3.263764648437500000e+03
3.443907958984375000e+03
3.539985839843750000e+03
3.485799804687500000e+03
3.357186279296875000e+03
3.289397460937500000e+03
3.346554931640625000e+03
3.454779052734375000e+03
3.481942626953125000e+03
3.380852783203125000e+03
3.241070556640625000e+03
3.197341796875000000e+03
3.290870605468750000e+03
3.421205078125000000e+03
3.449360839843750000e+03
3.341413085937500000e+03
3.200729980468750000e+03
3.162247558593750000e+03
3.254453125000000000e+03
3.370452148437500000e+03
3.380302734375000000e+03
3.267827392578125000e+03
3.141138183593750000e+03
3.118578857421875000e+03
3.205298583984375000e+03
3.294573730468750000e+03
3.287555664062500000e+03
3.204797851562500000e+03
3.156794189453125000e+03
3.233801269531250000e+03
3.403697021484375000e+03
3.532833740234375000e+03
3.513691650390625000e+03
3.373117919921875000e+03
3.247774414062500000e+03
3.258524169921875000e+03
3.390790039062500000e+03
3.511290283203125000e+03
3.509436035156250000e+03
3.411197509765625000e+03
3.347451904296875000e+03
3.409309082031250000e+03
3.549783447265625000e+03
3.622864990234375000e+03
3.542977294921875000e+03
3.377887207031250000e+03
3.280501708984375000e+03
3.332980468750000000e+03
3.463863769531250000e+03
3.525410888671875000e+03
3.451394531250000000e+03
3.315801269531250000e+03
3.248982910156250000e+03
3.301779785156250000e+03
3.399619628906250000e+03
3.424816406250000000e+03
3.342505371093750000e+03
3.231932373046875000e+03
3.206039550781250000e+03
3.294490966796875000e+03
3.407259765625000000e+03
3.425918457031250000e+03
3.329242431640625000e+03
3.217188964843750000e+03
3.213065917968750000e+03
3.342231445312500000e+03
3.501847412109375000e+03
3.561212646484375000e+03
3.489078857421875000e+03
3.378815185546875000e+03
3.349198730468750000e+03
3.429355224609375000e+03
3.522072021484375000e+03
3.511553710937500000e+03
3.389790283203125000e+03
3.267406005859375000e+03
3.257975585937500000e+03
3.355428955078125000e+03
3.437048095703125000e+03
3.399609619140625000e+03
3.269655029296875000e+03
3.171418457031250000e+03
3.194353515625000000e+03
3.300957519531250000e+03
3.371545654296875000e+03
3.338550048828125000e+03
3.254714599609375000e+03
3.230217529296875000e+03
3.311278808593750000e+03
3.424958740234375000e+03
3.453276855468750000e+03
3.359991943359375000e+03
3.236313476562500000e+03
3.210500732421875000e+03
3.331822021484375000e+03
3.513618652343750000e+03
3.606916748046875000e+03
3.540947753906250000e+03
3.393480957031250000e+03
3.317569580078125000e+03
3.401082763671875000e+03
3.572768798828125000e+03
3.672366943359375000e+03
3.611416503906250000e+03
3.459076171875000000e+03
3.364957519531250000e+03
3.405347900390625000e+03
3.516204589843750000e+03
3.565161865234375000e+03
3.497633544921875000e+03
3.388205322265625000e+03
3.355646240234375000e+03
3.433833984375000000e+03
3.532617675781250000e+03
3.533392333984375000e+03
3.418826416015625000e+03
3.290020507812500000e+03
3.262009033203125000e+03
3.342851074218750000e+03
3.428261230468750000e+03
3.412992919921875000e+03
3.304734863281250000e+03
3.212270507812500000e+03
3.235852783203125000e+03
3.359905273437500000e+03
3.460841796875000000e+03
3.432442871093750000e+03
3.298623779296875000e+03
3.189665039062500000e+03
3.217671630859375000e+03
3.361596679687500000e+03
3.486512207031250000e+03
3.480894531250000000e+03
3.367176513671875000e+03
3.273939208984375000e+03
3.301077636718750000e+03
3.419704101562500000e+03
3.495754150390625000e+03
3.434046386718750000e+03
3.281443847656250000e+03
3.182634033203125000e+03
3.235363281250000000e+03
3.385591064453125000e+03
3.477671386718750000e+03
3.414355224609375000e+03
3.253144775390625000e+03
3.146880615234375000e+03
3.192868408203125000e+03
3.349798095703125000e+03
3.504345947265625000e+03
3.615282958984375000e+03
3.763180175781250000e+03
4.063910888671875000e+03
4.524804199218750000e+03
4.999995605468750000e+03
5.304646484375000000e+03
5.379335937500000000e+03
5.334219238281250000e+03
5.326619140625000000e+03
5.392320800781250000e+03
5.389135253906250000e+03
5.129136718750000000e+03
4.580560058593750000e+03
3.931586914062500000e+03
3.446123779296875000e+03
3.254557861328125000e+03
3.260323486328125000e+03
3.271449951171875000e+03
3.199311035156250000e+03
3.117855468750000000e+03
3.142506835937500000e+03
3.273303466796875000e+03
3.384822265625000000e+03
3.358645507812500000e+03
3.217659667968750000e+03
3.104885742187500000e+03
3.137007568359375000e+03
3.284607177734375000e+03
3.401257324218750000e+03
3.374429687500000000e+03
3.236697509765625000e+03
3.125713134765625000e+03
3.143418701171875000e+03
3.254805664062500000e+03
3.331087646484375000e+03
3.289159912109375000e+03
3.176182861328125000e+03
3.117289794921875000e+03
3.190009033203125000e+03
3.341259033203125000e+03
3.435306152343750000e+03
3.389938232421875000e+03
3.263294433593750000e+03
3.198381347656250000e+03
3.286220947265625000e+03
3.465220947265625000e+03
3.578592285156250000e+03
3.533722900390625000e+03
3.395726562500000000e+03
3.316761718750000000e+03
3.377460693359375000e+03
3.508116210937500000e+03
3.565489257812500000e+03
3.490244140625000000e+03
3.364787353515625000e+03
3.322387695312500000e+03
3.407099365234375000e+03
3.527118896484375000e+03
3.553970947265625000e+03
3.459559570312500000e+03
3.342384277343750000e+03
3.325192138671875000e+03
3.425234375000000000e+03
3.535502929687500000e+03
3.537579589843750000e+03
3.431639892578125000e+03
3.337048095703125000e+03
3.376074218750000000e+03
3.542188720703125000e+03
3.694436035156250000e+03
3.696348632812500000e+03
3.557823242187500000e+03
3.429059814453125000e+03
3.459836914062500000e+03
3.650025146484375000e+03
3.845800048828125000e+03
3.890382080078125000e+03
3.773702392578125000e+03
3.630531005859375000e+03
3.599561767578125000e+03
3.690552978515625000e+03
3.779730224609375000e+03
3.752978759765625000e+03
3.628821044921875000e+03
3.535486328125000000e+03
3.572756103515625000e+03
3.699646484375000000e+03
3.775230957031250000e+03
3.706523925781250000e+03
3.546345214843750000e+03
3.437107910156250000e+03
3.463200439453125000e+03
3.564184082031250000e+03
3.603683349609375000e+03
3.516680419921875000e+03
3.377783691406250000e+03
3.314480224609375000e+03
3.363800537109375000e+03
3.429761962890625000e+03
3.394461914062500000e+03
3.259533447265625000e+03
3.152301269531250000e+03
3.197536132812500000e+03
3.387122802734375000e+03
3.576158203125000000e+03
3.613294921875000000e+03
3.478315673828125000e+03
3.295463867187500000e+03
3.219475585937500000e+03
3.297156738281250000e+03
3.428910888671875000e+03
3.473127197265625000e+03
3.389746582031250000e+03
3.272306884765625000e+03
3.244861816406250000e+03
3.327056884765625000e+03
3.416252197265625000e+03
3.401245117187500000e+03
3.290465087890625000e+03
3.203371582031250000e+03
3.241224609375000000e+03
3.371264648437500000e+03
3.452381835937500000e+03
3.384815673828125000e+03
3.216959960937500000e+03
3.097677001953125000e+03
3.128289794921875000e+03
3.263591796875000000e+03
3.360785400390625000e+03
3.331745117187500000e+03
3.220322509765625000e+03
3.151351806640625000e+03
3.198297851562500000e+03
3.310125488281250000e+03
3.368470703125000000e+03
3.315789550781250000e+03
3.216638427734375000e+03
3.187204101562500000e+03
3.282996337890625000e+03
3.433565185546875000e+03
3.508689208984375000e+03
3.449033691406250000e+03
3.328990966796875000e+03
3.285698974609375000e+03
3.384949218750000000e+03
3.541441162109375000e+03
3.597436767578125000e+03
3.483685302734375000e+03
3.295058837890625000e+03
3.198235107421875000e+03
3.270010986328125000e+03
3.422608886718750000e+03
3.496586914062500000e+03
3.421866210937500000e+03
3.278049316406250000e+03
3.205466552734375000e+03
3.260379882812500000e+03
3.364606689453125000e+03
3.400297363281250000e+03
3.338616210937500000e+03
3.262878906250000000e+03
3.265278320312500000e+03
3.336955078125000000e+03
3.374547607421875000e+03
3.299280029296875000e+03
3.159562988281250000e+03
3.087330810546875000e+03
3.176189697265625000e+03
3.376027587890625000e+03
