1.117143188476562500e+03
1.105861328125000000e+03
1.093374511718750000e+03
1.079634643554687500e+03
1.064684570312500000e+03
1.049075683593750000e+03
1.033450073242187500e+03
1.018127441406250000e+03
1.003084960937500000e+03
9.882747802734375000e+02
9.740121459960937500e+02
9.609182128906250000e+02
9.493975830078125000e+02
9.391930541992187500e+02
9.294882812500000000e+02
9.195346069335937500e+02
9.092854614257812500e+02
8.997868652343750000e+02
8.924697875976562500e+02
8.881904907226562500e+02
8.866975097656250000e+02
8.866657714843750000e+02
8.865388793945312500e+02
8.853116455078125000e+02
8.829376220703125000e+02
8.801266479492187500e+02
8.777286376953125000e+02
8.763826293945312500e+02
8.763006591796875000e+02
8.773193969726562500e+02
8.791358642578125000e+02
8.814111938476562500e+02
8.838018188476562500e+02
8.859661865234375000e+02
8.875686645507812500e+02
8.883291015625000000e+02
8.882247924804687500e+02
8.873985595703125000e+02
8.861404418945312500e+02
8.848558959960937500e+02
8.840203857421875000e+02
8.839132690429687500e+02
8.846682128906250000e+02
8.862435302734375000e+02
8.884288940429687500e+02
8.908867797851562500e+02
8.931465454101562500e+02
8.947440185546875000e+02
8.954057006835937500e+02
8.951671752929687500e+02
8.943120727539062500e+02
8.932768554687500000e+02
8.924293212890625000e+02
8.920924072265625000e+02
8.924274902343750000e+02
8.933231201171875000e+02
8.942994995117187500e+02
8.947821044921875000e+02
8.944406127929687500e+02
8.934612426757812500e+02
8.924284057617187500e+02
8.919190063476562500e+02
8.921808471679687500e+02
8.929480590820312500e+02
8.936691284179687500e+02
8.937356567382812500e+02
8.930116577148437500e+02
8.924757080078125000e+02
8.944331054687500000e+02
9.015767822265625000e+02
9.154313354492187500e+02
9.353099975585937500e+02
9.583338623046875000e+02
9.806306152343750000e+02
9.987559814453125000e+02
1.010509460449218750e+03
1.014909118652343750e+03
1.011898559570312500e+03
1.001999877929687500e+03
9.864270629882812500e+02
9.670626831054687500e+02
9.462462768554687500e+02
9.264876708984375000e+02
9.100629882812500000e+02
8.985131225585937500e+02
8.921752319335937500e+02
8.901618041992187500e+02
8.907394409179687500e+02
8.920897827148437500e+02
8.929579467773437500e+02
8.929852294921875000e+02
8.925770874023437500e+02
8.924918823242187500e+02
8.932146606445312500e+02
8.946624145507812500e+02
8.963558349609375000e+02
8.978592529296875000e+02
8.989464721679687500e+02
8.995232543945312500e+02
8.996939086914062500e+02
8.999832763671875000e+02
9.020380859375000000e+02
9.090852661132812500e+02
9.246620483398437500e+02
9.496728515625000000e+02
9.792409057617187500e+02
1.001805114746093750e+03
1.002375610351562500e+03
9.690749511718750000e+02
8.997228393554687500e+02
8.047370605468750000e+02
7.038668823242187500e+02
6.180667724609375000e+02
5.616599731445312500e+02
5.389445190429687500e+02
5.456141357421875000e+02
5.730314941406250000e+02
6.120568847656250000e+02
6.544630737304687500e+02
6.933963623046875000e+02
7.238411254882812500e+02
7.433601074218750000e+02
7.526390380859375000e+02
7.547958374023437500e+02
7.540874023437500000e+02
7.547869873046875000e+02
7.603230590820312500e+02
7.725026245117187500e+02
7.913052368164062500e+02
8.153285522460937500e+02
8.422252197265625000e+02
8.695504150390625000e+02
8.952630615234375000e+02
9.177609863281250000e+02
9.361790161132812500e+02
9.506454467773437500e+02
9.620549316406250000e+02
9.716916503906250000e+02
9.806771240234375000e+02
9.896671142578125000e+02
9.987084960937500000e+02
1.007532775878906250e+03
1.015979736328125000e+03
1.024115844726562500e+03
1.032150024414062500e+03
1.040152709960937500e+03
1.048196044921875000e+03
1.056460693359375000e+03
1.065149047851562500e+03
1.074459594726562500e+03
1.084380249023437500e+03
1.094589843750000000e+03
1.104682983398437500e+03
1.114219482421875000e+03
1.122861450195312500e+03
1.130006958007812500e+03
1.135062744140625000e+03
1.137458496093750000e+03
1.136642578125000000e+03
1.132208007812500000e+03
1.123841674804687500e+03
1.111351074218750000e+03
1.095302612304687500e+03
1.077154174804687500e+03
1.058815917968750000e+03
1.041858764648437500e+03
1.026984008789062500e+03
1.013861206054687500e+03
1.001472900390625000e+03
9.889036865234375000e+02
9.758222045898437500e+02
9.627395629882812500e+02
9.502761230468750000e+02
9.386702880859375000e+02
9.277645263671875000e+02
9.172968139648437500e+02
9.073377075195312500e+02
8.986762695312500000e+02
8.923967285156250000e+02
8.890327148437500000e+02
8.881209106445312500e+02
8.884155883789062500e+02
8.885993652343750000e+02
8.879613037109375000e+02
8.865701904296875000e+02
8.849442138671875000e+02
8.836189575195312500e+02
8.828681640625000000e+02
8.827127685546875000e+02
8.830263671875000000e+02
8.834839477539062500e+02
8.835615234375000000e+02
8.829272460937500000e+02
8.818142089843750000e+02
8.809289550781250000e+02
8.811125488281250000e+02
8.827396850585937500e+02
8.853975219726562500e+02
8.880886840820312500e+02
8.897236938476562500e+02
8.897527465820312500e+02
8.884912719726562500e+02
8.867879028320312500e+02
8.855858154296875000e+02
8.853369750976562500e+02
8.858646850585937500e+02
8.865608520507812500e+02
8.868869628906250000e+02
8.866890869140625000e+02
8.862127075195312500e+02
8.858530883789062500e+02
8.857612915039062500e+02
8.857607421875000000e+02
8.855076293945312500e+02
8.847843017578125000e+02
8.838528442382812500e+02
8.833029785156250000e+02
8.836145019531250000e+02
8.848379516601562500e+02
8.866075439453125000e+02
8.885565185546875000e+02
8.905368041992187500e+02
8.925838012695312500e+02
8.945830688476562500e+02
8.961851806640625000e+02
8.970304565429687500e+02
8.972698364257812500e+02
8.978239746093750000e+02
9.003206787109375000e+02
9.065654907226562500e+02
9.177490844726562500e+02
9.338651733398437500e+02
9.535505981445312500e+02
9.743977661132812500e+02
9.935316772460937500e+02
1.008234619140625000e+03
1.016369140625000000e+03
1.016666015625000000e+03
1.008868164062500000e+03
9.939479980468750000e+02
9.740678100585937500e+02
9.522380981445312500e+02
9.314782104492187500e+02
9.142205200195312500e+02
9.017521362304687500e+02
8.941063842773437500e+02
8.904505004882812500e+02
8.896198730468750000e+02
8.905903320312500000e+02
8.924108886718750000e+02
8.943122558593750000e+02
8.957318725585937500e+02
8.964290771484375000e+02
8.964971923828125000e+02
8.961675415039062500e+02
8.956057739257812500e+02
8.948958129882812500e+02
8.940859375000000000e+02
8.933287353515625000e+02
8.929470214843750000e+02
8.934495239257812500e+02
8.960460205078125000e+02
9.035180664062500000e+02
9.192575683593750000e+02
9.443523559570312500e+02
9.743310546875000000e+02
9.976502075195312500e+02
9.988107910156250000e+02
9.653710937500000000e+02
8.952109375000000000e+02
7.993797607421875000e+02
6.982702636718750000e+02
6.130966796875000000e+02
5.579672241210937500e+02
5.367705688476562500e+02
5.448208007812500000e+02
5.732626953125000000e+02
6.130284423828125000e+02
6.560430297851562500e+02
6.956063232421875000e+02
7.267103271484375000e+02
7.468996582031250000e+02
7.568269042968750000e+02
7.598014526367187500e+02
7.606218261718750000e+02
7.641089477539062500e+02
7.737079467773437500e+02
7.907074584960937500e+02
8.142205810546875000e+02
8.417570190429687500e+02
8.701912841796875000e+02
8.968989868164062500e+02
9.203344116210937500e+02
9.400034179687500000e+02
9.561352539062500000e+02
9.692150268554687500e+02
9.800012207031250000e+02
9.892094116210937500e+02
9.974509887695312500e+02
1.005031127929687500e+03
1.012011596679687500e+03
1.018405212402343750e+03
1.024467041015625000e+03
1.030916503906250000e+03
1.038633544921875000e+03
1.048201538085937500e+03
1.059542602539062500e+03
1.071811157226562500e+03
1.083926391601562500e+03
1.094898071289062500e+03
1.104279174804687500e+03
1.112206054687500000e+03
1.119130615234375000e+03
1.125440063476562500e+03
1.131037963867187500e+03
1.135246826171875000e+03
1.137105102539062500e+03
1.135777465820312500e+03
1.130989257812500000e+03
1.122900634765625000e+03
1.111746459960937500e+03
1.097986816406250000e+03
1.082406372070312500e+03
1.066095214843750000e+03
1.050087524414062500e+03
1.035046508789062500e+03
1.020884765625000000e+03
1.006969543457031250e+03
9.927947387695312500e+02
9.785358886718750000e+02
9.648180541992187500e+02
9.520703735351562500e+02
9.400674438476562500e+02
9.282497558593750000e+02
9.163209838867187500e+02
9.046325683593750000e+02
8.943841552734375000e+02
8.869656982421875000e+02
8.831294555664062500e+02
8.825289916992187500e+02
8.838431396484375000e+02
8.854802856445312500e+02
8.863026733398437500e+02
8.860257568359375000e+02
8.850959472656250000e+02
8.842591552734375000e+02
8.839544677734375000e+02
8.841617431640625000e+02
8.846118774414062500e+02
8.850682983398437500e+02
8.854408569335937500e+02
8.858418579101562500e+02
8.863963012695312500e+02
8.871342163085937500e+02
8.879714355468750000e+02
8.887349243164062500e+02
8.891718139648437500e+02
8.890218505859375000e+02
8.882225341796875000e+02
8.870812988281250000e+02
8.861796875000000000e+02
8.860091552734375000e+02
8.866788330078125000e+02
8.878491821289062500e+02
8.890874023437500000e+02
8.901704711914062500e+02
8.911482543945312500e+02
8.920768432617187500e+02
8.927818603515625000e+02
8.929672851562500000e+02
8.926900634765625000e+02
8.924806518554687500e+02
8.929593505859375000e+02
8.942379150390625000e+02
8.957220458984375000e+02
8.965352783203125000e+02
8.962976684570312500e+02
8.954594726562500000e+02
8.949490966796875000e+02
8.954728393554687500e+02
8.968748779296875000e+02
8.982813110351562500e+02
8.987009887695312500e+02
8.976832275390625000e+02
8.955314941406250000e+02
8.932998046875000000e+02
8.925107421875000000e+02
8.949767456054687500e+02
9.024154663085937500e+02
9.156854858398437500e+02
9.342843627929687500e+02
9.562064208984375000e+02
9.784597778320312500e+02
9.978541870117187500e+02
1.011614929199218750e+03
1.017778198242187500e+03
1.015459899902343750e+03
1.004846252441406250e+03
9.873807983398437500e+02
9.656503906250000000e+02
9.430172729492187500e+02
9.228626098632812500e+02
9.077097167968750000e+02
8.985831909179687500e+02
8.947355346679687500e+02
8.942523803710937500e+02
8.949581909179687500e+02
8.955269165039062500e+02
8.956176147460937500e+02
8.954645385742187500e+02
8.953723144531250000e+02
8.954141845703125000e+02
8.954268798828125000e+02
8.951103515625000000e+02
8.941614990234375000e+02
8.925535278320312500e+02
8.907034301757812500e+02
8.892717285156250000e+02
8.888916625976562500e+02
8.900297241210937500e+02
8.936842041015625000e+02
9.023685913085937500e+02
9.193726806640625000e+02
9.457438964843750000e+02
9.768738403320312500e+02
1.001070251464843750e+03
1.002878845214843750e+03
9.701091918945312500e+02
9.007421264648437500e+02
8.056238403320312500e+02
7.047496337890625000e+02
6.191490478515625000e+02
5.630245971679687500e+02
5.405664672851562500e+02
5.476507568359375000e+02
5.759024047851562500e+02
6.162716674804687500e+02
6.602772827148437500e+02
7.005098266601562500e+02
7.313845825195312500e+02
7.502554931640625000e+02
7.582012939453125000e+02
7.590802001953125000e+02
7.577833862304687500e+02
7.587307739257812500e+02
7.650323486328125000e+02
7.780194702148437500e+02
7.971236572265625000e+02
8.205136718750000000e+02
8.458969116210937500e+02
8.712459716796875000e+02
8.952091064453125000e+02
9.168279418945312500e+02
9.354946289062500000e+02
9.510993041992187500e+02
9.642819213867187500e+02
9.761408691406250000e+02
9.874127807617187500e+02
9.981382446289062500e+02
1.007646301269531250e+03
1.015232482910156250e+03
1.020894714355468750e+03
1.025469116210937500e+03
1.030105712890625000e+03
1.035725585937500000e+03
1.042781127929687500e+03
1.051448608398437500e+03
1.061690307617187500e+03
1.073123535156250000e+03
1.084839355468750000e+03
1.095862792968750000e+03
1.105643310546875000e+03
1.114207519531250000e+03
1.121903198242187500e+03
1.128603515625000000e+03
1.133490844726562500e+03
1.135509643554687500e+03
1.134058593750000000e+03
1.129422973632812500e+03
1.122538085937500000e+03
1.114089599609375000e+03
1.104011474609375000e+03
1.091814941406250000e+03
1.077113037109375000e+03
1.060137329101562500e+03
1.042098022460937500e+03
1.024553344726562500e+03
1.008519531250000000e+03
9.940886230468750000e+02
9.807077026367187500e+02
9.679224853515625000e+02
9.557943725585937500e+02
9.447979125976562500e+02
9.351866455078125000e+02
9.266723022460937500e+02
9.185087890625000000e+02
9.101166381835937500e+02
9.018434448242187500e+02
8.948153686523437500e+02
8.900623779296875000e+02
8.878322753906250000e+02
8.872977905273437500e+02
8.871816406250000000e+02
8.865500488281250000e+02
8.852817993164062500e+02
8.838936157226562500e+02
8.829871215820312500e+02
8.827872314453125000e+02
8.830432739257812500e+02
8.834113769531250000e+02
8.836643066406250000e+02
8.838696289062500000e+02
8.842921752929687500e+02
8.851284179687500000e+02
8.862633056640625000e+02
8.872991943359375000e+02
8.876875000000000000e+02
8.871522216796875000e+02
8.859163208007812500e+02
8.846105957031250000e+02
8.839252929687500000e+02
8.841981811523437500e+02
8.852913208007812500e+02
8.868220214843750000e+02
8.884714965820312500e+02
8.902283325195312500e+02
8.922393798828125000e+02
8.943253784179687500e+02
8.958502807617187500e+02
8.962005615234375000e+02
8.952498779296875000e+02
8.935133056640625000e+02
8.918476562500000000e+02
8.908369140625000000e+02
8.903942871093750000e+02
8.899719848632812500e+02
8.892014160156250000e+02
8.882897338867187500e+02
8.877977294921875000e+02
8.881720581054687500e+02
8.894172363281250000e+02
8.910903320312500000e+02
8.925320434570312500e+02
8.931812133789062500e+02
8.928361816406250000e+02
8.916424560546875000e+02
8.903024291992187500e+02
8.901232299804687500e+02
8.929557495117187500e+02
9.005946044921875000e+02
9.139377441406250000e+02
9.324985351562500000e+02
9.542214355468750000e+02
9.760068359375000000e+02
9.945451660156250000e+02
1.007136169433593750e+03
1.012182434082031250e+03
1.009190856933593750e+03
9.986154785156250000e+02
9.816712646484375000e+02
9.604224853515625000e+02
9.378302001953125000e+02
9.171786499023437500e+02
9.012152709960937500e+02
8.910910644531250000e+02
8.860872802734375000e+02
8.843698730468750000e+02
8.840469970703125000e+02
8.840166625976562500e+02
8.840136108398437500e+02
8.842097778320312500e+02
8.847553100585937500e+02
8.856547851562500000e+02
8.868453979492187500e+02
8.881647338867187500e+02
8.893723144531250000e+02
8.902459716796875000e+02
8.905543823242187500e+02
8.902175903320312500e+02
8.895086059570312500e+02
8.893139648437500000e+02
8.916228027343750000e+02
8.998997802734375000e+02
9.176207275390625000e+02
9.452476196289062500e+02
9.772272949218750000e+02
1.001263061523437500e+03
1.001889831542968750e+03
9.673113403320312500e+02
8.959666748046875000e+02
7.990377807617187500e+02
6.967767944335937500e+02
6.103623657226562500e+02
5.542429199218750000e+02
5.328801269531250000e+02
5.420336914062500000e+02
5.727070312500000000e+02
6.149520874023437500e+02
6.595355224609375000e+02
6.989762573242187500e+02
7.283097534179687500e+02
7.457688598632812500e+02
7.530521240234375000e+02
7.541171264648437500e+02
7.533723754882812500e+02
7.545802001953125000e+02
7.604216918945312500e+02
7.723216552734375000e+02
7.903844604492187500e+02
8.135746459960937500e+02
8.399136352539062500e+02
8.670637207031250000e+02
8.929123535156250000e+02
9.158799438476562500e+02
9.353865356445312500e+02
9.517878417968750000e+02
9.659821777343750000e+02
9.789099121093750000e+02
9.910767822265625000e+02
1.002453735351562500e+03
1.012545410156250000e+03
1.020752502441406250e+03
1.026880737304687500e+03
1.031420166015625000e+03
1.035356445312500000e+03
1.039900268554687500e+03
1.046034301757812500e+03
1.054120117187500000e+03
1.063756958007812500e+03
1.074179443359375000e+03
1.084636352539062500e+03
1.094776123046875000e+03
1.104616577148437500e+03
1.114190917968750000e+03
1.123125732421875000e+03
1.130346923828125000e+03
1.134587158203125000e+03
1.135150268554687500e+03
1.132341308593750000e+03
1.127291992187500000e+03
1.121208251953125000e+03
1.114460205078125000e+03
1.106331298828125000e+03
1.095846679687500000e+03
1.082588745117187500e+03
1.067082031250000000e+03
1.050678833007812500e+03
1.034613891601562500e+03
1.019276977539062500e+03
1.004315002441406250e+03
9.893533935546875000e+02
9.747049560546875000e+02
9.611750488281250000e+02
9.492874145507812500e+02
9.387503051757812500e+02
9.286723022460937500e+02
9.183641967773437500e+02
9.079791259765625000e+02
8.986893920898437500e+02
8.917792968750000000e+02
8.877456665039062500e+02
8.860171508789062500e+02
8.854619750976562500e+02
8.851422119140625000e+02
8.847367553710937500e+02
8.844307861328125000e+02
8.845939941406250000e+02
8.853717651367187500e+02
8.866107788085937500e+02
8.879437255859375000e+02
8.889358520507812500e+02
8.892479858398437500e+02
8.888390502929687500e+02
8.879347534179687500e+02
8.870390014648437500e+02
8.866008911132812500e+02
8.866601562500000000e+02
8.868793945312500000e+02
8.868402099609375000e+02
8.864894409179687500e+02
8.862106933593750000e+02
8.865125732421875000e+02
8.875858154296875000e+02
8.890972290039062500e+02
8.902852783203125000e+02
8.904056396484375000e+02
8.893729858398437500e+02
8.879067993164062500e+02
8.870321044921875000e+02
8.875144042968750000e+02
8.893168945312500000e+02
8.916292114257812500e+02
8.933885498046875000e+02
8.939287719726562500e+02
8.933256225585937500e+02
8.921911621093750000e+02
8.912540283203125000e+02
8.910368652343750000e+02
8.916878662109375000e+02
8.930904541015625000e+02
8.948887939453125000e+02
8.966191406250000000e+02
8.977948608398437500e+02
8.980065917968750000e+02
8.970811157226562500e+02
8.952047729492187500e+02
8.929848632812500000e+02
8.914483032226562500e+02
8.919636840820312500e+02
8.960667114257812500e+02
9.050104370117187500e+02
9.191711425781250000e+02
9.375995483398437500e+02
9.580580444335937500e+02
9.777359008789062500e+02
9.939141845703125000e+02
1.004571166992187500e+03
1.008479980468750000e+03
1.005159790039062500e+03
9.950120239257812500e+02
9.794168090820312500e+02
9.606242065429687500e+02
9.413618774414062500e+02
9.240164794921875000e+02
9.101040039062500000e+02
9.001147460937500000e+02
8.936870727539062500e+02
8.901474609375000000e+02
8.888337402343750000e+02
8.892518920898437500e+02
8.909049682617187500e+02
8.932028198242187500e+02
8.954682617187500000e+02
8.972078247070312500e+02
8.981818847656250000e+02
8.983858032226562500e+02
8.979802856445312500e+02
8.971738281250000000e+02
8.961783447265625000e+02
8.952455444335937500e+02
8.949440307617187500e+02
8.967586059570312500e+02
9.038069458007812500e+02
9.195097656250000000e+02
9.447292480468750000e+02
9.744888916015625000e+02
9.969416503906250000e+02
9.969082641601562500e+02
9.626556396484375000e+02
8.925427246093750000e+02
7.976240844726562500e+02
6.978889770507812500e+02
6.140562744140625000e+02
5.599591674804687500e+02
5.393804321289062500e+02
5.478140869140625000e+02
5.765842285156250000e+02
6.165791625976562500e+02
6.594508666992187500e+02
6.982636718750000000e+02
7.280007934570312500e+02
7.465671997070312500e+02
7.553084106445312500e+02
7.577241821289062500e+02
7.577515258789062500e+02
7.588751220703125000e+02
7.639829711914062500e+02
7.751200561523437500e+02
7.929248046875000000e+02
8.164348144531250000e+02
8.431750488281250000e+02
8.703328857421875000e+02
8.959368286132812500e+02
9.191442260742187500e+02
9.399161987304687500e+02
9.581488037109375000e+02
9.736683959960937500e+02
9.864797363281250000e+02
9.969982299804687500e+02
1.005890380859375000e+03
1.013728942871093750e+03
1.020807434082031250e+03
1.027089965820312500e+03
1.032676147460937500e+03
1.038115600585937500e+03
1.044140258789062500e+03
1.051531250000000000e+03
1.060748657226562500e+03
1.071718627929687500e+03
1.083813110351562500e+03
1.096064575195312500e+03
1.107614135742187500e+03
1.117755126953125000e+03
1.126118774414062500e+03
1.132420043945312500e+03
1.136334106445312500e+03
1.137639892578125000e+03
1.136344970703125000e+03
1.132851440429687500e+03
1.127642089843750000e+03
1.120827636718750000e+03
1.111943481445312500e+03
1.100417846679687500e+03
1.086158447265625000e+03
1.069805908203125000e+03
1.052795654296875000e+03
1.036590942382812500e+03
1.021917724609375000e+03
1.008358276367187500e+03
9.947686157226562500e+02
9.802098999023437500e+02
9.646491699218750000e+02
9.488973999023437500e+02
9.340017089843750000e+02
9.207754516601562500e+02
9.096068725585937500e+02
9.006606445312500000e+02
8.941622924804687500e+02
8.901643676757812500e+02
8.882425537109375000e+02
8.875496826171875000e+02
8.872092895507812500e+02
8.868011474609375000e+02
8.862915039062500000e+02
8.858421630859375000e+02
8.854780273437500000e+02
8.851204223632812500e+02
8.847159423828125000e+02
8.843138427734375000e+02
8.840320434570312500e+02
8.838832397460937500e+02
8.837975463867187500e+02
8.836688842773437500e+02
8.834480590820312500e+02
8.832822265625000000e+02
8.834161987304687500e+02
8.840845947265625000e+02
8.853567504882812500e+02
8.869983520507812500e+02
8.885763549804687500e+02
8.897312011718750000e+02
8.904326782226562500e+02
8.908166503906250000e+02
8.910252685546875000e+02
8.911188354492187500e+02
8.911969604492187500e+02
8.914566650390625000e+02
8.921209106445312500e+02
8.932266235351562500e+02
8.944471435546875000e+02
8.952951660156250000e+02
8.955673828125000000e+02
8.955701904296875000e+02
8.958254394531250000e+02
8.965636596679687500e+02
8.975839233398437500e+02
8.984173583984375000e+02
8.986954956054687500e+02
8.983643188476562500e+02
8.975198364257812500e+02
8.962747192382812500e+02
8.946721191406250000e+02
8.928400268554687500e+02
8.910581054687500000e+02
8.895827026367187500e+02
8.888367919921875000e+02
8.896217041015625000e+02
8.933294067382812500e+02
9.015380249023437500e+02
9.149459228515625000e+02
9.328758544921875000e+02
9.532501831054687500e+02
9.733961181640625000e+02
9.907690429687500000e+02
1.003208618164062500e+03
1.009047729492187500e+03
1.007319702148437500e+03
9.980796508789062500e+02
9.825906982421875000e+02
9.630986328125000000e+02
9.425371704101562500e+02
9.237087402343750000e+02
9.088135986328125000e+02
8.990041503906250000e+02
8.940222778320312500e+02
8.925139160156250000e+02
8.925834960937500000e+02
8.927058105468750000e+02
8.922644653320312500e+02
8.914341430664062500e+02
8.907962646484375000e+02
8.909693603515625000e+02
8.922409057617187500e+02
8.943521728515625000e+02
8.966677246093750000e+02
8.985495605468750000e+02
8.993875732421875000e+02
8.988932495117187500e+02
8.972267456054687500e+02
8.952752075195312500e+02
8.952469482421875000e+02
9.009780273437500000e+02
9.164036865234375000e+02
9.423318481445312500e+02
9.731768798828125000e+02
9.961906127929687500e+02
9.953623046875000000e+02
9.587511596679687500e+02
8.853959350585937500e+02
7.875410156250000000e+02
6.862160644531250000e+02
6.025820922851562500e+02
5.502482910156250000e+02
5.323341064453125000e+02
5.434210205078125000e+02
5.739508666992187500e+02
6.142439575195312500e+02
6.560991821289062500e+02
6.934228515625000000e+02
7.223115844726562500e+02
7.412990722656250000e+02
7.513450317382812500e+02
7.550798339843750000e+02
7.559029541015625000e+02
7.573268432617187500e+02
7.625039672851562500e+02
7.735832519531250000e+02
7.911763916015625000e+02
8.143220214843750000e+02
8.409271240234375000e+02
8.686019897460937500e+02
8.953293457031250000e+02
9.195574340820312500e+02
9.403469848632812500e+02
9.574475708007812500e+02
9.713806762695312500e+02
9.831026000976562500e+02
9.935489501953125000e+02
1.003198852539062500e+03
1.011902038574218750e+03
1.019219116210937500e+03
1.025094238281250000e+03
1.029955200195312500e+03
1.034533935546875000e+03
1.039646240234375000e+03
1.045958374023437500e+03
1.053964355468750000e+03
1.063840454101562500e+03
1.075262695312500000e+03
1.087296264648437500e+03
1.098730224609375000e+03
1.108796020507812500e+03
1.117401611328125000e+03
1.124827270507812500e+03
1.131040649414062500e+03
1.135472412109375000e+03
1.137457275390625000e+03
1.136604736328125000e+03
1.133129272460937500e+03
1.127545410156250000e+03
