1.001031188964843750e+03
9.870673217773437500e+02
9.731140136718750000e+02
9.594440307617187500e+02
9.465021972656250000e+02
9.345190429687500000e+02
9.235679931640625000e+02
9.136629638671875000e+02
9.049454956054687500e+02
8.979912719726562500e+02
8.933858642578125000e+02
8.911238403320312500e+02
8.903756713867187500e+02
8.898200683593750000e+02
8.884351196289062500e+02
8.861572875976562500e+02
8.838739624023437500e+02
8.827001953125000000e+02
8.831184082031250000e+02
8.845767822265625000e+02
8.858519287109375000e+02
8.861063842773437500e+02
8.853519897460937500e+02
8.843105468750000000e+02
8.839028930664062500e+02
8.845680541992187500e+02
8.862034912109375000e+02
8.883291625976562500e+02
8.903947143554687500e+02
8.919285888671875000e+02
8.926826171875000000e+02
8.926575317382812500e+02
8.920851440429687500e+02
8.913026733398437500e+02
8.905498046875000000e+02
8.899160156250000000e+02
8.894243164062500000e+02
8.891588134765625000e+02
8.892465209960937500e+02
8.897691040039062500e+02
8.906574707031250000e+02
8.916945800781250000e+02
8.926710815429687500e+02
8.934520263671875000e+02
8.939085083007812500e+02
8.939250488281250000e+02
8.933757934570312500e+02
8.923790283203125000e+02
8.913316650390625000e+02
8.908051147460937500e+02
8.911257324218750000e+02
8.921604614257812500e+02
8.933816528320312500e+02
8.941625366210937500e+02
8.941217041015625000e+02
8.932941284179687500e+02
8.920846557617187500e+02
8.909935302734375000e+02
8.905971679687500000e+02
8.919150390625000000e+02
8.965859375000000000e+02
9.062878417968750000e+02
9.217307128906250000e+02
9.420139160156250000e+02
9.647421875000000000e+02
9.867150268554687500e+02
1.004800964355468750e+03
1.016553649902343750e+03
1.020519470214843750e+03
1.016227233886718750e+03
1.004265991210937500e+03
9.862933959960937500e+02
9.647163696289062500e+02
9.422915649414062500e+02
9.217360229492187500e+02
9.053369140625000000e+02
8.944064331054687500e+02
8.889331054687500000e+02
8.877003784179687500e+02
8.889281616210937500e+02
8.910605468750000000e+02
8.931837768554687500e+02
8.948403320312500000e+02
8.958571777343750000e+02
8.961206054687500000e+02
8.955524291992187500e+02
8.942208251953125000e+02
8.924427490234375000e+02
8.906451416015625000e+02
8.891166381835937500e+02
8.879356689453125000e+02
8.871516113281250000e+02
8.872824096679687500e+02
8.901044921875000000e+02
8.991032714843750000e+02
9.177332763671875000e+02
9.460834960937500000e+02
9.774608764648437500e+02
9.983045043945312500e+02
9.925791015625000000e+02
9.495268554687500000e+02
8.703476562500000000e+02
7.694566040039062500e+02
6.689563598632812500e+02
5.894326171875000000e+02
5.427720336914062500e+02
5.302844848632812500e+02
5.454563598632812500e+02
5.785828857421875000e+02
6.202562866210937500e+02
6.624606323242187500e+02
6.990549316406250000e+02
7.260425415039062500e+02
7.422336425781250000e+02
7.494194335937500000e+02
7.513220825195312500e+02
7.521334838867187500e+02
7.554922485351562500e+02
7.639257202148437500e+02
7.784290771484375000e+02
7.985358886718750000e+02
8.228203735351562500e+02
8.493244018554687500e+02
8.761137695312500000e+02
9.014860839843750000e+02
9.239913940429687500e+02
9.428449707031250000e+02
9.581013793945312500e+02
9.706524047851562500e+02
9.817776489257812500e+02
9.924063720703125000e+02
1.002663818359375000e+03
1.011980285644531250e+03
1.019675231933593750e+03
1.025683715820312500e+03
1.030601806640625000e+03
1.035454833984375000e+03
1.041179687500000000e+03
1.048518066406250000e+03
1.057836791992187500e+03
1.068979370117187500e+03
1.081179565429687500e+03
1.093208374023437500e+03
1.103905639648437500e+03
1.112801025390625000e+03
1.120205810546875000e+03
1.126720214843750000e+03
1.132357910156250000e+03
1.136233154296875000e+03
1.137186401367187500e+03
1.134577514648437500e+03
1.128804687500000000e+03
1.120820190429687500e+03
1.111294433593750000e+03
1.100142211914062500e+03
1.086965698242187500e+03
1.071659301757812500e+03
1.054884155273437500e+03
1.038018798828125000e+03
1.022369384765625000e+03
1.008398742675781250e+03
9.956853027343750000e+02
9.834732666015625000e+02
9.712779541015625000e+02
9.592367553710937500e+02
9.478395385742187500e+02
9.373807983398437500e+02
9.278310546875000000e+02
9.187915039062500000e+02
9.099448852539062500e+02
9.017584228515625000e+02
8.952292480468750000e+02
8.911481323242187500e+02
8.894166259765625000e+02
8.889092407226562500e+02
8.881859741210937500e+02
8.864624023437500000e+02
8.841181030273437500e+02
8.821674804687500000e+02
8.813627929687500000e+02
8.816119995117187500e+02
8.822658081054687500e+02
8.828790283203125000e+02
8.833328857421875000e+02
8.837961425781250000e+02
8.844910888671875000e+02
8.853847045898437500e+02
8.862609252929687500e+02
8.868591308593750000e+02
8.870290527343750000e+02
8.867746582031250000e+02
8.862100830078125000e+02
8.855581054687500000e+02
8.851240234375000000e+02
8.851715698242187500e+02
8.858000488281250000e+02
8.868755493164062500e+02
8.881979980468750000e+02
8.895810546875000000e+02
8.908786621093750000e+02
8.919337158203125000e+02
8.925741577148437500e+02
8.926516723632812500e+02
8.920596313476562500e+02
8.908327636718750000e+02
8.891615600585937500e+02
8.873056640625000000e+02
8.855800170898437500e+02
8.844305419921875000e+02
8.842429809570312500e+02
8.850369262695312500e+02
8.864013061523437500e+02
8.877940063476562500e+02
8.889752807617187500e+02
8.900646362304687500e+02
8.912654418945312500e+02
8.925361328125000000e+02
8.935253906250000000e+02
8.937705688476562500e+02
8.934611206054687500e+02
8.938164062500000000e+02
8.969776000976562500e+02
9.050949707031250000e+02
9.192601318359375000e+02
9.386927490234375000e+02
9.608163452148437500e+02
9.822335815429687500e+02
9.998495483398437500e+02
1.011382690429687500e+03
1.015660827636718750e+03
1.012032104492187500e+03
1.000255004882812500e+03
9.811156005859375000e+02
9.570940551757812500e+02
9.323384399414062500e+02
9.111932373046875000e+02
8.964603271484375000e+02
8.883239746093750000e+02
8.849028320312500000e+02
8.838321533203125000e+02
8.837036132812500000e+02
8.843731079101562500e+02
8.860722656250000000e+02
8.885054321289062500e+02
8.910521850585937500e+02
8.928945312500000000e+02
8.935794677734375000e+02
8.932820434570312500e+02
8.926637573242187500e+02
8.923941040039062500e+02
8.926773681640625000e+02
8.933016357421875000e+02
8.943175048828125000e+02
8.973281860351562500e+02
9.061013793945312500e+02
9.244135131835937500e+02
9.522699584960937500e+02
9.827886352539062500e+02
1.002393188476562500e+03
9.956282348632812500e+02
9.524875488281250000e+02
8.744299926757812500e+02
7.753984985351562500e+02
6.765262451171875000e+02
5.975819091796875000e+02
5.501967773437500000e+02
5.360931396484375000e+02
5.495220336914062500e+02
5.816102905273437500e+02
6.233740844726562500e+02
6.665728759765625000e+02
7.042963256835937500e+02
7.317917480468750000e+02
7.476609497070312500e+02
7.540515136718750000e+02
7.551129760742187500e+02
7.551705932617187500e+02
7.577485961914062500e+02
7.652012329101562500e+02
7.785302124023437500e+02
7.975112915039062500e+02
8.209745483398437500e+02
8.470571899414062500e+02
8.737672119140625000e+02
8.992805175781250000e+02
9.221316528320312500e+02
9.413916625976562500e+02
9.568359375000000000e+02
9.690421142578125000e+02
9.790511474609375000e+02
9.878783569335937500e+02
9.961705322265625000e+02
1.004100219726562500e+03
1.011608093261718750e+03
1.018809875488281250e+03
1.026074951171875000e+03
1.033826416015625000e+03
1.042369262695312500e+03
1.051865844726562500e+03
1.062315673828125000e+03
1.073520751953125000e+03
1.084980834960937500e+03
1.095973388671875000e+03
1.105788818359375000e+03
1.114114746093750000e+03
1.121130493164062500e+03
1.127252685546875000e+03
1.132506225585937500e+03
1.136315063476562500e+03
1.137890136718750000e+03
1.136531005859375000e+03
1.132083862304687500e+03
1.124873657226562500e+03
1.115325317382812500e+03
1.103688232421875000e+03
1.090279663085937500e+03
1.075553222656250000e+03
1.060127075195312500e+03
1.044813964843750000e+03
1.030053344726562500e+03
1.015622497558593750e+03
1.000987915039062500e+03
9.859805908203125000e+02
9.712969360351562500e+02
9.580709838867187500e+02
9.469315185546875000e+02
9.375285034179687500e+02
9.288116455078125000e+02
9.198134155273437500e+02
9.104916992187500000e+02
9.019133300781250000e+02
8.953965454101562500e+02
8.916106567382812500e+02
8.902684936523437500e+02
8.902815551757812500e+02
8.905057983398437500e+02
8.901077880859375000e+02
8.887963256835937500e+02
8.869209594726562500e+02
8.850526733398437500e+02
8.837691040039062500e+02
8.833948364257812500e+02
8.839303588867187500e+02
8.851041870117187500e+02
8.864873046875000000e+02
8.876651611328125000e+02
8.884836425781250000e+02
8.891030883789062500e+02
8.897070922851562500e+02
8.902870483398437500e+02
8.907783813476562500e+02
8.911572265625000000e+02
8.915431518554687500e+02
8.922076416015625000e+02
8.932506713867187500e+02
8.944343261718750000e+02
8.952156372070312500e+02
8.952224121093750000e+02
8.945885009765625000e+02
8.938442993164062500e+02
8.935512695312500000e+02
8.939348144531250000e+02
8.948046264648437500e+02
8.956032104492187500e+02
8.957326049804687500e+02
8.950105590820312500e+02
8.937735595703125000e+02
8.926181640625000000e+02
8.920035400390625000e+02
8.920627441406250000e+02
8.925994262695312500e+02
8.932949218750000000e+02
8.938877563476562500e+02
8.942373046875000000e+02
8.943027343750000000e+02
8.940653076171875000e+02
8.935872802734375000e+02
8.931140747070312500e+02
8.929711914062500000e+02
8.936349487304687500e+02
8.959761352539062500e+02
9.013543090820312500e+02
9.111473999023437500e+02
9.259182128906250000e+02
9.450151977539062500e+02
9.664315185546875000e+02
9.872807617187500000e+02
1.004426086425781250e+03
1.015173095703125000e+03
1.017772155761718750e+03
1.011818298339843750e+03
9.984139404296875000e+02
9.798691406250000000e+02
9.590347290039062500e+02
9.386732788085937500e+02
9.210186767578125000e+02
9.074925537109375000e+02
8.985025024414062500e+02
8.936079711914062500e+02
8.919685668945312500e+02
8.925660400390625000e+02
8.944681396484375000e+02
8.967950439453125000e+02
8.986901245117187500e+02
8.994993286132812500e+02
8.990337524414062500e+02
8.976522827148437500e+02
8.960039672851562500e+02
8.946143188476562500e+02
8.937914428710937500e+02
8.935924682617187500e+02
8.937764282226562500e+02
8.940594482421875000e+02
8.947130737304687500e+02
8.974962158203125000e+02
9.060913696289062500e+02
9.241820678710937500e+02
9.518549804687500000e+02
9.823715209960937500e+02
1.002105102539062500e+03
9.952758178710937500e+02
9.516307983398437500e+02
8.727706909179687500e+02
7.730546264648437500e+02
6.740628051757812500e+02
5.957203979492187500e+02
5.494740600585937500e+02
5.367352294921875000e+02
5.514522705078125000e+02
5.844956054687500000e+02
6.267518310546875000e+02
6.699714965820312500e+02
7.075148925781250000e+02
7.351227416992187500e+02
7.517224121093750000e+02
7.592887573242187500e+02
7.613883666992187500e+02
7.617134399414062500e+02
7.634935302734375000e+02
7.694060668945312500e+02
7.813704223632812500e+02
8.000188598632812500e+02
8.242556762695312500e+02
8.514027709960937500e+02
8.783090820312500000e+02
9.025501708984375000e+02
9.229471435546875000e+02
9.396980590820312500e+02
9.536865844726562500e+02
9.659075927734375000e+02
9.770119628906250000e+02
9.872681884765625000e+02
9.967661743164062500e+02
1.005526611328125000e+03
1.013703002929687500e+03
1.021606018066406250e+03
1.029474487304687500e+03
1.037395629882812500e+03
1.045353637695312500e+03
1.053338989257812500e+03
1.061531738281250000e+03
1.070147216796875000e+03
1.079274780273437500e+03
1.088752441406250000e+03
1.098322631835937500e+03
1.107751831054687500e+03
1.116801635742187500e+03
1.125093261718750000e+03
1.131879516601562500e+03
1.136377197265625000e+03
1.138067138671875000e+03
1.136698242187500000e+03
1.132281127929687500e+03
1.124908081054687500e+03
1.114564086914062500e+03
1.101291748046875000e+03
1.085665649414062500e+03
1.068829467773437500e+03
1.052287231445312500e+03
1.037429321289062500e+03
1.024643676757812500e+03
1.012965820312500000e+03
1.000802124023437500e+03
9.872313842773437500e+02
9.728004150390625000e+02
9.591072998046875000e+02
9.474251098632812500e+02
9.377561645507812500e+02
9.290724487304687500e+02
9.202305297851562500e+02
9.111182250976562500e+02
9.028819580078125000e+02
8.969154663085937500e+02
8.938336791992187500e+02
8.930582885742187500e+02
8.930225830078125000e+02
8.921932373046875000e+02
8.899452514648437500e+02
8.869091186523437500e+02
8.842445678710937500e+02
8.829263305664062500e+02
8.829583129882812500e+02
8.836594238281250000e+02
8.843118896484375000e+02
8.845344848632812500e+02
8.844093627929687500e+02
8.841162719726562500e+02
8.837167358398437500e+02
8.832310791015625000e+02
8.828012084960937500e+02
8.826102294921875000e+02
8.828696289062500000e+02
8.836159057617187500e+02
8.846635131835937500e+02
8.857183227539062500e+02
8.866600952148437500e+02
8.874939575195312500e+02
8.884912109375000000e+02
8.898340454101562500e+02
8.914625854492187500e+02
8.930753784179687500e+02
8.942565917968750000e+02
8.946859741210937500e+02
8.944011230468750000e+02
8.937451782226562500e+02
8.930356445312500000e+02
8.924233398437500000e+02
8.919403076171875000e+02
8.916053466796875000e+02
8.914957275390625000e+02
8.916358642578125000e+02
8.919293823242187500e+02
8.922404785156250000e+02
8.924055175781250000e+02
8.923562011718750000e+02
8.920601806640625000e+02
8.914719848632812500e+02
8.904650268554687500e+02
8.890596313476562500e+02
8.878609008789062500e+02
8.881704101562500000e+02
8.919868164062500000e+02
9.011660156250000000e+02
9.163646850585937500e+02
9.365191040039062500e+02
9.589994506835937500e+02
9.804841308593750000e+02
9.979824218750000000e+02
1.009265625000000000e+03
1.012970092773437500e+03
1.008620666503906250e+03
9.967570800781250000e+02
9.790035400390625000e+02
9.578291625976562500e+02
9.361213989257812500e+02
9.165903930664062500e+02
9.014389648437500000e+02
8.917079467773437500e+02
8.870938720703125000e+02
8.860293579101562500e+02
8.863666381835937500e+02
8.864631347656250000e+02
8.857777709960937500e+02
8.847493286132812500e+02
8.841516723632812500e+02
8.844084472656250000e+02
8.854824218750000000e+02
8.870562133789062500e+02
8.887476806640625000e+02
8.903095092773437500e+02
8.916548461914062500e+02
8.927450561523437500e+02
8.937050781250000000e+02
8.952059326171875000e+02
8.991001586914062500e+02
9.087369995117187500e+02
9.272789916992187500e+02
9.544927978515625000e+02
9.837428588867187500e+02
1.001758483886718750e+03
9.931140136718750000e+02
9.478787841796875000e+02
8.678853149414062500e+02
7.677255859375000000e+02
6.691005859375000000e+02
5.918670043945312500e+02
5.471432495117187500e+02
5.358204956054687500e+02
5.514046630859375000e+02
5.845007934570312500e+02
6.259652709960937500e+02
6.678189086914062500e+02
7.037849121093750000e+02
7.297503051757812500e+02
7.446119384765625000e+02
7.503371582031250000e+02
7.507095947265625000e+02
7.498747558593750000e+02
7.515681762695312500e+02
7.586513671875000000e+02
7.725889282226562500e+02
7.931844482421875000e+02
8.186360473632812500e+02
8.460337524414062500e+02
8.724943847656250000e+02
8.962813110351562500e+02
9.169719238281250000e+02
9.351105957031250000e+02
9.513446655273437500e+02
9.660050659179687500e+02
9.790975952148437500e+02
9.905209960937500000e+02
1.000281616210937500e+03
1.008449645996093750e+03
1.015248779296875000e+03
1.021160949707031250e+03
1.026968261718750000e+03
1.033552490234375000e+03
1.041468872070312500e+03
1.050703979492187500e+03
1.060804443359375000e+03
1.071243041992187500e+03
1.081722778320312500e+03
1.092097778320312500e+03
1.102197631835937500e+03
1.111723999023437500e+03
1.120195434570312500e+03
1.127167968750000000e+03
1.132308837890625000e+03
1.135520874023437500e+03
1.136779907226562500e+03
1.135848999023437500e+03
1.132442260742187500e+03
1.126367919921875000e+03
1.117568115234375000e+03
1.106046264648437500e+03
1.092116699218750000e+03
1.076277221679687500e+03
1.059396606445312500e+03
1.042789062500000000e+03
1.027576538085937500e+03
1.013913452148437500e+03
1.000921508789062500e+03
9.874915161132812500e+02
9.732516479492187500e+02
9.589315795898437500e+02
9.456373291015625000e+02
9.339926757812500000e+02
9.237199707031250000e+02
9.140346679687500000e+02
9.045543823242187500e+02
8.960348510742187500e+02
8.897489013671875000e+02
8.865691528320312500e+02
8.862717895507812500e+02
8.875249633789062500e+02
8.885964965820312500e+02
8.882611083984375000e+02
8.863389892578125000e+02
8.835581054687500000e+02
8.812000122070312500e+02
8.802897949218750000e+02
8.810846557617187500e+02
8.830485839843750000e+02
8.852473144531250000e+02
8.869267578125000000e+02
8.879243164062500000e+02
8.885062866210937500e+02
8.890358276367187500e+02
8.895833740234375000e+02
8.900098876953125000e+02
8.902634277343750000e+02
8.904563598632812500e+02
8.906995239257812500e+02
8.910134277343750000e+02
8.913818359375000000e+02
8.918018188476562500e+02
8.922890625000000000e+02
8.928615722656250000e+02
8.934574584960937500e+02
8.938922119140625000e+02
8.939488525390625000e+02
8.935185546875000000e+02
8.927904052734375000e+02
8.922082519531250000e+02
8.922852172851562500e+02
8.932761230468750000e+02
8.949591674804687500e+02
8.966530151367187500e+02
8.975130004882812500e+02
8.970474243164062500e+02
8.955280151367187500e+02
8.937467041015625000e+02
8.926021118164062500e+02
8.926090087890625000e+02
8.936306152343750000e+02
8.950390014648437500e+02
8.961059570312500000e+02
8.964461059570312500e+02
8.961666259765625000e+02
8.958965454101562500e+02
8.968161621093750000e+02
9.006676025390625000e+02
9.092593994140625000e+02
9.236694335937500000e+02
9.435391845703125000e+02
9.666456298828125000e+02
9.894823608398437500e+02
1.008322204589843750e+03
1.020150329589843750e+03
1.023241516113281250e+03
1.017331481933593750e+03
1.003543334960937500e+03
9.840913085937500000e+02
9.617877807617187500e+02
9.395401000976562500e+02
9.198764038085937500e+02
9.045955810546875000e+02
8.944984130859375000e+02
8.892930297851562500e+02
8.877831420898437500e+02
8.883627319335937500e+02
8.897681274414062500e+02
8.912910766601562500e+02
8.927656860351562500e+02
8.941284179687500000e+02
8.951379394531250000e+02
8.955300292968750000e+02
8.952180175781250000e+02
8.944517211914062500e+02
8.936433715820312500e+02
8.930947265625000000e+02
8.929220581054687500e+02
8.932090454101562500e+02
8.944863281250000000e+02
8.985431518554687500e+02
9.086395874023437500e+02
9.276064453125000000e+02
9.546682128906250000e+02
9.828815307617187500e+02
9.992139282226562500e+02
9.889760742187500000e+02
9.428840942382812500e+02
8.629956054687500000e+02
7.636749877929687500e+02
6.661317749023437500e+02
5.898003540039062500e+02
5.455910034179687500e+02
5.343592529296875000e+02
5.497795410156250000e+02
5.829096679687500000e+02
6.251051635742187500e+02
6.686677246093750000e+02
7.070494384765625000e+02
7.355396118164062500e+02
7.524440307617187500e+02
7.594482421875000000e+02
7.604657592773437500e+02
7.600320434570312500e+02
7.621160278320312500e+02
7.693724975585937500e+02
7.827499389648437500e+02
8.016884765625000000e+02
8.247820434570312500e+02
8.501964111328125000e+02
8.761596069335937500e+02
9.009631958007812500e+02
9.230048217773437500e+02
9.413339843750000000e+02
9.560558471679687500e+02
9.682873535156250000e+02
9.794521484375000000e+02
9.904115600585937500e+02
1.000970581054687500e+03
1.010250671386718750e+03
1.017593017578125000e+03
1.023274414062500000e+03
1.028419311523437500e+03
1.034314086914062500e+03
1.041784057617187500e+03
1.051034057617187500e+03
1.061735473632812500e+03
1.073310546875000000e+03
1.085078369140625000e+03
1.096151977539062500e+03
1.105747070312500000e+03
1.113659423828125000e+03
1.120274169921875000e+03
1.126067138671875000e+03
1.130938354492187500e+03
1.134183105468750000e+03
1.135132568359375000e+03
1.133602661132812500e+03
1.129968383789062500e+03
1.124653198242187500e+03
1.117315429687500000e+03
1.107090454101562500e+03
1.093697753906250000e+03
1.077909912109375000e+03
1.061265625000000000e+03
1.045450073242187500e+03
1.031237426757812500e+03
1.018122253417968750e+03
1.004898315429687500e+03
9.906375122070312500e+02
9.754828491210937500e+02
9.604295043945312500e+02
9.466417846679687500e+02
9.345924682617187500e+02
9.239498291015625000e+02
9.139627685546875000e+02
9.045255737304687500e+02
8.965194702148437500e+02
8.910307006835937500e+02
8.883372802734375000e+02
8.877031250000000000e+02
8.878184814453125000e+02
8.877496948242187500e+02
8.873613891601562500e+02
8.870149536132812500e+02
8.868907470703125000e+02
8.866569213867187500e+02
8.860258178710937500e+02
8.850579833984375000e+02
8.842152099609375000e+02
8.840130615234375000e+02
8.847039794921875000e+02
8.860709838867187500e+02
8.876536865234375000e+02
8.889129638671875000e+02
8.895447998046875000e+02
8.894745483398437500e+02
8.888339843750000000e+02
8.878580322265625000e+02
8.868701782226562500e+02
8.861580810546875000e+02
8.859215087890625000e+02
8.862572631835937500e+02
8.870197753906250000e+02
8.878817749023437500e+02
8.885383911132812500e+02
8.888302001953125000e+02
8.888497314453125000e+02
8.888639526367187500e+02
8.891136474609375000e+02
8.897482299804687500e+02
8.906078491210937500e+02
8.914912109375000000e+02
8.921645507812500000e+02
8.923770751953125000e+02
8.919284057617187500e+02
8.908693847656250000e+02
8.895408935546875000e+02
8.884102783203125000e+02
8.878825073242187500e+02
8.881450195312500000e+02
8.890971069335937500e+02
8.903292846679687500e+02
8.913745727539062500e+02
8.919730834960937500e+02
8.923770141601562500e+02
8.936532592773437500e+02
8.977664794921875000e+02
9.066915893554687500e+02
9.212669067382812500e+02
9.405003662109375000e+02
9.618448486328125000e+02
9.822154541015625000e+02
9.987452392578125000e+02
1.009246215820312500e+03
1.012296691894531250e+03
1.007353027343750000e+03
9.950390625000000000e+02
9.773094482421875000e+02
9.569947509765625000e+02
9.370793457031250000e+02
9.199293212890625000e+02
9.068338012695312500e+02
8.979586791992187500e+02
8.926363525390625000e+02
8.897733154296875000e+02
8.882706298828125000e+02
8.873532104492187500e+02
8.866055908203125000e+02
8.859899902343750000e+02
8.856243286132812500e+02
8.857492675781250000e+02
8.865179443359375000e+02
8.876988525390625000e+02
8.887235717773437500e+02
8.891018066406250000e+02
8.887337036132812500e+02
8.878767089843750000e+02
8.870111083984375000e+02
8.870866088867187500e+02
8.903016967773437500e+02
9.003027343750000000e+02
9.203348388671875000e+02
9.497921142578125000e+02
9.811142578125000000e+02
1.000059448242187500e+03
9.910180664062500000e+02
9.447226562500000000e+02
8.640577392578125000e+02
7.642040405273437500e+02
6.665848999023437500e+02
5.902016601562500000e+02
5.454910888671875000e+02
5.333922119140625000e+02
5.481599731445312500e+02
5.813280639648437500e+02
6.240499267578125000e+02
6.678394165039062500e+02
7.056030273437500000e+02
7.327843627929687500e+02
7.484014282226562500e+02
7.547936401367187500e+02
7.558933715820312500e+02
7.557050170898437500e+02
7.577654418945312500e+02
7.648877563476562500e+02
7.787051391601562500e+02
7.991926269531250000e+02
8.246890258789062500e+02
8.523996582031250000e+02
8.796052246093750000e+02
9.043103637695312500e+02
9.253821411132812500e+02
9.427214355468750000e+02
9.569007568359375000e+02
9.689639892578125000e+02
9.800129394531250000e+02
9.907202758789062500e+02
1.001200073242187500e+03
1.011049377441406250e+03
1.019788818359375000e+03
1.027240234375000000e+03
1.033541381835937500e+03
1.039290649414062500e+03
1.045336181640625000e+03
1.052517944335937500e+03
1.061322021484375000e+03
1.071718139648437500e+03
1.083214965820312500e+03
1.094872314453125000e+03
1.105672607421875000e+03
1.114953735351562500e+03
1.122561157226562500e+03
1.128660278320312500e+03
1.133242431640625000e+03
1.136066528320312500e+03
1.136654541015625000e+03
1.134535400390625000e+03
1.129797607421875000e+03
1.122918945312500000e+03
1.114223388671875000e+03
1.103544921875000000e+03
1.090599731445312500e+03
1.075462524414062500e+03
1.058954589843750000e+03
