1.008113830566406250e+03
9.948773803710937500e+02
9.817501831054687500e+02
9.686382446289062500e+02
9.558797607421875000e+02
9.437272338867187500e+02
9.321530151367187500e+02
9.210289916992187500e+02
9.103118286132812500e+02
9.006165161132812500e+02
8.931008300781250000e+02
8.886401977539062500e+02
8.872073974609375000e+02
8.876879272460937500e+02
8.884588623046875000e+02
8.883586425781250000e+02
8.872027587890625000e+02
8.855057983398437500e+02
8.837586059570312500e+02
8.820808105468750000e+02
8.802961425781250000e+02
8.784499511718750000e+02
8.770029907226562500e+02
8.765435180664062500e+02
8.773827514648437500e+02
8.791940307617187500e+02
8.811823120117187500e+02
8.825393066406250000e+02
8.828059082031250000e+02
8.820286254882812500e+02
8.806917724609375000e+02
8.795491333007812500e+02
8.792731933593750000e+02
8.802281494140625000e+02
8.822627563476562500e+02
8.847999267578125000e+02
8.872293090820312500e+02
8.890712890625000000e+02
8.901427001953125000e+02
8.904918823242187500e+02
8.903391723632812500e+02
8.899901733398437500e+02
8.897469482421875000e+02
8.898145751953125000e+02
8.902452392578125000e+02
8.910241699218750000e+02
8.920912475585937500e+02
8.933565063476562500e+02
8.946834716796875000e+02
8.958474731445312500e+02
8.966915283203125000e+02
8.971995849609375000e+02
8.973992919921875000e+02
8.973643798828125000e+02
8.971964721679687500e+02
8.969928588867187500e+02
8.967465820312500000e+02
8.963792114257812500e+02
8.959102783203125000e+02
8.958029785156250000e+02
8.971459960937500000e+02
9.017148437500000000e+02
9.112527465820312500e+02
9.265629882812500000e+02
9.467283325195312500e+02
9.691361694335937500e+02
9.901979980468750000e+02
1.006332824707031250e+03
1.015017272949218750e+03
1.015386474609375000e+03
1.007990295410156250e+03
9.942259521484375000e+02
9.758794555664062500e+02
9.551715698242187500e+02
9.346035156250000000e+02
9.165518798828125000e+02
9.027169189453125000e+02
8.935855102539062500e+02
8.886199951171875000e+02
8.866535034179687500e+02
8.865952148437500000e+02
8.877836303710937500e+02
8.898246459960937500e+02
8.923535766601562500e+02
8.948952026367187500e+02
8.968278808593750000e+02
8.976984252929687500e+02
8.974493408203125000e+02
8.966079711914062500e+02
8.959768676757812500e+02
8.960504760742187500e+02
8.966543579101562500e+02
8.972374877929687500e+02
8.978865356445312500e+02
9.008204345703125000e+02
9.103042602539062500e+02
9.298485717773437500e+02
9.581673583984375000e+02
9.863552856445312500e+02
9.993505249023437500e+02
9.819749145507812500e+02
9.268700561523437500e+02
8.396570434570312500e+02
7.378984375000000000e+02
6.436964111328125000e+02
5.747045288085937500e+02
5.389496459960937500e+02
5.348579101562500000e+02
5.549855346679687500e+02
5.904675292968750000e+02
6.330260009765625000e+02
6.752531127929687500e+02
7.110258178710937500e+02
7.363193359375000000e+02
7.504723510742187500e+02
7.559732055664062500e+02
7.569351806640625000e+02
7.574897460937500000e+02
7.610748901367187500e+02
7.699349365234375000e+02
7.850161132812500000e+02
8.059434204101562500e+02
8.310878906250000000e+02
8.579490356445312500e+02
8.841171875000000000e+02
9.079349975585937500e+02
9.286926269531250000e+02
9.465732421875000000e+02
9.620054931640625000e+02
9.753942260742187500e+02
9.869473266601562500e+02
9.968920288085937500e+02
1.005575988769531250e+03
1.013397827148437500e+03
1.020679077148437500e+03
1.027693115234375000e+03
1.034565795898437500e+03
1.041461425781250000e+03
1.048579101562500000e+03
1.056355957031250000e+03
1.065276733398437500e+03
1.075504272460937500e+03
1.086718994140625000e+03
1.097951171875000000e+03
1.108105346679687500e+03
1.116499389648437500e+03
1.123090209960937500e+03
1.128096923828125000e+03
1.131454467773437500e+03
1.132833862304687500e+03
1.131955932617187500e+03
1.128837646484375000e+03
1.123899169921875000e+03
1.117436157226562500e+03
1.109175781250000000e+03
1.098483154296875000e+03
1.085017944335937500e+03
1.069196289062500000e+03
1.052283203125000000e+03
1.035884887695312500e+03
1.021053710937500000e+03
1.007684997558593750e+03
9.948499755859375000e+02
9.817106323242187500e+02
9.682670898437500000e+02
9.552814331054687500e+02
9.434441528320312500e+02
9.327270507812500000e+02
9.224056396484375000e+02
9.119855957031250000e+02
9.021552734375000000e+02
8.944253540039062500e+02
8.898973388671875000e+02
8.882875976562500000e+02
8.881107177734375000e+02
8.877572631835937500e+02
8.865576171875000000e+02
8.850581054687500000e+02
8.842328491210937500e+02
8.844654541015625000e+02
8.853518066406250000e+02
8.862048950195312500e+02
8.866099243164062500e+02
8.865764160156250000e+02
8.864985351562500000e+02
8.868392333984375000e+02
8.877355957031250000e+02
8.889408569335937500e+02
8.899224243164062500e+02
8.902150268554687500e+02
8.896704711914062500e+02
8.886403198242187500e+02
8.878687133789062500e+02
8.880076293945312500e+02
8.891627197265625000e+02
8.908460693359375000e+02
8.923414306640625000e+02
8.931441040039062500e+02
8.931470336914062500e+02
8.925809936523437500e+02
8.917760009765625000e+02
8.910833129882812500e+02
8.908983764648437500e+02
8.915564575195312500e+02
8.930455322265625000e+02
8.947947387695312500e+02
8.958890380859375000e+02
8.955746459960937500e+02
8.937351684570312500e+02
8.910845336914062500e+02
8.887289428710937500e+02
8.875780639648437500e+02
8.878922729492187500e+02
8.892036132812500000e+02
8.907236328125000000e+02
8.917601318359375000e+02
8.921201171875000000e+02
8.919974365234375000e+02
8.918534545898437500e+02
8.923450317382812500e+02
8.946536865234375000e+02
9.005362548828125000e+02
9.116028442382812500e+02
9.283142700195312500e+02
9.493217163085937500e+02
9.716499633789062500e+02
9.917993774414062500e+02
1.006841979980468750e+03
1.015003295898437500e+03
1.015587463378906250e+03
1.008565917968750000e+03
9.945988159179687500e+02
9.752614746093750000e+02
9.531432495117187500e+02
9.314537963867187500e+02
9.132579345703125000e+02
9.004252929687500000e+02
8.930725097656250000e+02
8.899349975585937500e+02
8.893156738281250000e+02
8.899002075195312500e+02
8.910520019531250000e+02
8.923933715820312500e+02
8.934435424804687500e+02
8.936561279296875000e+02
8.928039550781250000e+02
8.912875366210937500e+02
8.899540405273437500e+02
8.895256958007812500e+02
8.901621704101562500e+02
8.913770141601562500e+02
8.924894409179687500e+02
8.932867431640625000e+02
8.947538452148437500e+02
8.996511840820312500e+02
9.117764282226562500e+02
9.335654907226562500e+02
9.628295898437500000e+02
9.905654296875000000e+02
1.002286682128906250e+03
9.836278076171875000e+02
9.277414550781250000e+02
8.403381958007812500e+02
7.387131347656250000e+02
6.446605834960937500e+02
5.757038574218750000e+02
5.398637084960937500e+02
5.358060302734375000e+02
5.565148925781250000e+02
5.931782226562500000e+02
6.370734863281250000e+02
6.800233154296875000e+02
7.152572631835937500e+02
7.388707275390625000e+02
7.509218750000000000e+02
7.550611572265625000e+02
7.565219726562500000e+02
7.601690063476562500e+02
7.691589965820312500e+02
7.845594482421875000e+02
8.056665039062500000e+02
8.305812988281250000e+02
8.570283813476562500e+02
8.830041503906250000e+02
9.070221557617187500e+02
9.282196044921875000e+02
9.463370971679687500e+02
9.615458374023437500e+02
9.743578491210937500e+02
9.854269409179687500e+02
9.953425292968750000e+02
1.004367919921875000e+03
1.012445800781250000e+03
1.019443359375000000e+03
1.025540649414062500e+03
1.031311279296875000e+03
1.037645507812500000e+03
1.045338989257812500e+03
1.054772338867187500e+03
1.065545898437500000e+03
1.076687866210937500e+03
1.087261474609375000e+03
1.096801879882812500e+03
1.105524047851562500e+03
1.113913452148437500e+03
1.122029174804687500e+03
1.129159912109375000e+03
1.134067016601562500e+03
1.135880737304687500e+03
1.134561889648437500e+03
1.130811889648437500e+03
1.125373168945312500e+03
1.118302734375000000e+03
1.109083618164062500e+03
1.097233642578125000e+03
1.082993041992187500e+03
1.067303344726562500e+03
1.051418945312500000e+03
1.036429809570312500e+03
1.022712158203125000e+03
1.009789611816406250e+03
9.968417968750000000e+02
9.832999267578125000e+02
9.692789306640625000e+02
9.554602050781250000e+02
9.426408691406250000e+02
9.311796264648437500e+02
9.209906616210937500e+02
9.117636718750000000e+02
9.036284179687500000e+02
8.973802490234375000e+02
8.937442016601562500e+02
8.926320190429687500e+02
8.929130859375000000e+02
8.929900512695312500e+02
8.918215942382812500e+02
8.895106811523437500e+02
8.870068359375000000e+02
8.852946166992187500e+02
8.847280273437500000e+02
8.850054321289062500e+02
8.854969482421875000e+02
8.858082275390625000e+02
8.858526611328125000e+02
8.857796630859375000e+02
8.858293457031250000e+02
8.861542968750000000e+02
8.867222900390625000e+02
8.872459106445312500e+02
8.873494262695312500e+02
8.869219970703125000e+02
8.863155517578125000e+02
8.861867675781250000e+02
8.870570068359375000e+02
8.889744873046875000e+02
8.914100952148437500e+02
8.935303344726562500e+02
8.947726440429687500e+02
8.950392456054687500e+02
8.945687866210937500e+02
8.937402343750000000e+02
8.928779907226562500e+02
8.921886596679687500e+02
8.917731933593750000e+02
8.917224121093750000e+02
8.921439819335937500e+02
8.930342407226562500e+02
8.942182617187500000e+02
8.953549194335937500e+02
8.960889282226562500e+02
8.961635742187500000e+02
8.955702514648437500e+02
8.945591430664062500e+02
8.935736083984375000e+02
8.930073852539062500e+02
8.929804687500000000e+02
8.933062133789062500e+02
8.936273193359375000e+02
8.937345581054687500e+02
8.941301269531250000e+02
8.962494506835937500e+02
9.020360107421875000e+02
9.131223754882812500e+02
9.298681030273437500e+02
9.509501953125000000e+02
9.734315185546875000e+02
9.933793945312500000e+02
1.006924377441406250e+03
1.011480529785156250e+03
1.006419738769531250e+03
9.930928955078125000e+02
9.743399658203125000e+02
9.535533447265625000e+02
9.338805541992187500e+02
9.176406250000000000e+02
9.059849243164062500e+02
8.987974853515625000e+02
8.949409179687500000e+02
8.928001098632812500e+02
8.911477050781250000e+02
8.896060791015625000e+02
8.884454345703125000e+02
8.880195922851562500e+02
8.883554687500000000e+02
8.891124267578125000e+02
8.898530883789062500e+02
8.902929077148437500e+02
8.904429931640625000e+02
8.906143188476562500e+02
8.909805297851562500e+02
8.915042724609375000e+02
8.921345214843750000e+02
8.935209350585937500e+02
8.980792846679687500e+02
9.096914062500000000e+02
9.312623901367187500e+02
9.610495605468750000e+02
9.898855590820312500e+02
1.002566406250000000e+03
9.839761962890625000e+02
9.270653686523437500e+02
8.379719848632812500e+02
7.348530273437500000e+02
6.403286743164062500e+02
5.722783813476562500e+02
5.384779663085937500e+02
5.368342895507812500e+02
5.593313598632812500e+02
5.965253295898437500e+02
6.396876831054687500e+02
6.813945312500000000e+02
7.159881591796875000e+02
7.400618286132812500e+02
7.532981567382812500e+02
7.581372680664062500e+02
7.585052490234375000e+02
7.586434326171875000e+02
7.624438476562500000e+02
7.724204101562500000e+02
7.890957031250000000e+02
8.111417846679687500e+02
8.361361694335937500e+02
8.615197143554687500e+02
8.855219116210937500e+02
9.072860107421875000e+02
9.266845703125000000e+02
9.440402221679687500e+02
9.596214599609375000e+02
9.735264892578125000e+02
9.856803588867187500e+02
9.959730224609375000e+02
1.004578674316406250e+03
1.011967529296875000e+03
1.018685302734375000e+03
1.025159179687500000e+03
1.031579956054687500e+03
1.038166259765625000e+03
1.045270507812500000e+03
1.053363281250000000e+03
1.062702270507812500e+03
1.073140380859375000e+03
1.084099121093750000e+03
1.094896850585937500e+03
1.105112060546875000e+03
1.114671142578125000e+03
1.123471801757812500e+03
1.131107666015625000e+03
1.136665527343750000e+03
1.139184814453125000e+03
1.138041503906250000e+03
1.133296508789062500e+03
1.125677246093750000e+03
1.115764770507812500e+03
1.103836669921875000e+03
1.090050292968750000e+03
1.074674194335937500e+03
1.058243041992187500e+03
1.041747558593750000e+03
1.026074340820312500e+03
1.011490173339843750e+03
9.975699462890625000e+02
9.838843994140625000e+02
9.704108276367187500e+02
9.575806884765625000e+02
9.458109130859375000e+02
9.351621704101562500e+02
9.254362792968750000e+02
9.162361450195312500e+02
9.076253051757812500e+02
9.002661743164062500e+02
8.948536987304687500e+02
8.915703735351562500e+02
8.898659057617187500e+02
8.886652221679687500e+02
8.871189575195312500e+02
8.850472412109375000e+02
8.829152221679687500e+02
8.813784790039062500e+02
8.808114013671875000e+02
8.809989624023437500e+02
8.814842529296875000e+02
8.820277099609375000e+02
8.825551147460937500e+02
8.831492919921875000e+02
8.838158569335937500e+02
8.845132446289062500e+02
8.852260742187500000e+02
8.859786987304687500e+02
8.868931274414062500e+02
8.880975341796875000e+02
8.895221557617187500e+02
8.908182983398437500e+02
8.916119995117187500e+02
8.917573852539062500e+02
8.912987060546875000e+02
8.904134521484375000e+02
8.892768554687500000e+02
8.880380859375000000e+02
8.869275512695312500e+02
8.862490844726562500e+02
8.862716064453125000e+02
8.870373535156250000e+02
8.884021606445312500e+02
8.901203002929687500e+02
8.919525146484375000e+02
8.937820434570312500e+02
8.954653930664062500e+02
8.967982177734375000e+02
8.975892944335937500e+02
8.978316040039062500e+02
8.976679077148437500e+02
8.973260498046875000e+02
8.970214843750000000e+02
8.968113403320312500e+02
8.965477294921875000e+02
8.959085693359375000e+02
8.947283325195312500e+02
8.932644653320312500e+02
8.924592285156250000e+02
8.939391479492187500e+02
8.997843627929687500e+02
9.114741821289062500e+02
9.289911499023437500e+02
9.505413208007812500e+02
9.731326293945312500e+02
9.934916992187500000e+02
1.008783447265625000e+03
1.017060729980468750e+03
1.017297119140625000e+03
1.009440246582031250e+03
9.944845581054687500e+02
9.744820556640625000e+02
9.521790771484375000e+02
9.304751586914062500e+02
9.118477783203125000e+02
8.981065063476562500e+02
8.899221801757812500e+02
8.867371215820312500e+02
8.870011596679687500e+02
8.889190673828125000e+02
8.911066894531250000e+02
8.927023315429687500e+02
8.934566040039062500e+02
8.936065063476562500e+02
8.937697143554687500e+02
8.944576416015625000e+02
8.956542968750000000e+02
8.967670898437500000e+02
8.970557250976562500e+02
8.961680297851562500e+02
8.946146850585937500e+02
8.935642700195312500e+02
8.950234375000000000e+02
9.017153930664062500e+02
9.168377685546875000e+02
9.408532104492187500e+02
9.674129638671875000e+02
9.824801635742187500e+02
9.693801879882812500e+02
9.180617675781250000e+02
8.325019531250000000e+02
7.307993164062500000e+02
6.369836425781250000e+02
5.701338500976562500e+02
5.379979858398437500e+02
5.379246826171875000e+02
5.615162963867187500e+02
5.992432250976562500e+02
6.422308959960937500e+02
6.831790161132812500e+02
7.164849853515625000e+02
7.391296997070312500e+02
7.513600463867187500e+02
7.559764404296875000e+02
7.568914184570312500e+02
7.579754028320312500e+02
7.625926513671875000e+02
7.729329833984375000e+02
7.894706420898437500e+02
8.112261352539062500e+02
8.363012695312500000e+02
8.625545043945312500e+02
8.882432861328125000e+02
9.119188842773437500e+02
9.323554687500000000e+02
9.488192749023437500e+02
9.613464355468750000e+02
9.709797973632812500e+02
9.792517089843750000e+02
9.874669799804687500e+02
9.961748046875000000e+02
1.005244689941406250e+03
1.014225524902343750e+03
1.022739562988281250e+03
1.030752807617187500e+03
1.038562988281250000e+03
1.046562988281250000e+03
1.055129638671875000e+03
1.064443115234375000e+03
1.074446044921875000e+03
1.084884033203125000e+03
1.095306640625000000e+03
1.105275024414062500e+03
1.114498046875000000e+03
1.122759399414062500e+03
1.129797851562500000e+03
1.135123413085937500e+03
1.138111328125000000e+03
1.138209716796875000e+03
1.135283081054687500e+03
1.129683715820312500e+03
1.121856445312500000e+03
1.111963745117187500e+03
1.099970336914062500e+03
1.086040893554687500e+03
1.070657714843750000e+03
1.054814575195312500e+03
1.039715576171875000e+03
1.025941406250000000e+03
1.013025573730468750e+03
9.998634033203125000e+02
9.855160522460937500e+02
9.700526123046875000e+02
9.544854125976562500e+02
9.399832153320312500e+02
9.272208251953125000e+02
9.162746582031250000e+02
9.068403930664062500e+02
8.991052856445312500e+02
8.937322387695312500e+02
8.910242919921875000e+02
8.904356079101562500e+02
8.905518798828125000e+02
8.899071655273437500e+02
8.878475952148437500e+02
8.847308959960937500e+02
8.815197753906250000e+02
8.792158813476562500e+02
8.783596191406250000e+02
8.788245849609375000e+02
8.801493530273437500e+02
8.817630004882812500e+02
8.830504150390625000e+02
8.836278076171875000e+02
8.834157104492187500e+02
8.826798095703125000e+02
8.818985595703125000e+02
8.814757080078125000e+02
8.816200561523437500e+02
8.822988891601562500e+02
8.833956298828125000e+02
8.847952880859375000e+02
8.863831787109375000e+02
8.878656005859375000e+02
8.888319091796875000e+02
8.890464477539062500e+02
8.887259521484375000e+02
8.884415283203125000e+02
8.886882934570312500e+02
8.895079345703125000e+02
8.905299682617187500e+02
8.912587280273437500e+02
8.914257202148437500e+02
8.911376953125000000e+02
8.908747558593750000e+02
8.912136230468750000e+02
8.925475463867187500e+02
8.947719116210937500e+02
8.972009277343750000e+02
8.989266967773437500e+02
8.993900756835937500e+02
8.988014526367187500e+02
8.979420776367187500e+02
8.976296997070312500e+02
8.980833740234375000e+02
8.988914184570312500e+02
8.992952270507812500e+02
8.988329467773437500e+02
8.979141845703125000e+02
8.981735229492187500e+02
9.020765991210937500e+02
9.117655639648437500e+02
9.278583374023437500e+02
9.488471069335937500e+02
9.715608520507812500e+02
9.923234252929687500e+02
1.007965942382812500e+03
1.016420532226562500e+03
1.016814208984375000e+03
1.009188293457031250e+03
9.945262451171875000e+02
9.746988525390625000e+02
9.523506469726562500e+02
9.305200805664062500e+02
9.120939941406250000e+02
8.990462646484375000e+02
8.918381347656250000e+02
8.894110107421875000e+02
8.896785278320312500e+02
8.906400146484375000e+02
8.912111816406250000e+02
8.913287963867187500e+02
8.915089721679687500e+02
8.922161865234375000e+02
8.935012207031250000e+02
8.950382080078125000e+02
8.963169555664062500e+02
8.969892578125000000e+02
8.970109252929687500e+02
8.964989013671875000e+02
8.957064208984375000e+02
8.952782592773437500e+02
8.965712890625000000e+02
9.024524536132812500e+02
9.162582397460937500e+02
9.384257202148437500e+02
9.625231933593750000e+02
9.748293457031250000e+02
9.595652465820312500e+02
9.076832885742187500e+02
8.235623779296875000e+02
7.246572265625000000e+02
6.338095092773437500e+02
5.691194458007812500e+02
5.380975952148437500e+02
5.384155883789062500e+02
5.621763916015625000e+02
5.999218750000000000e+02
6.428820800781250000e+02
6.837017211914062500e+02
7.171370849609375000e+02
7.404425048828125000e+02
7.536727294921875000e+02
7.590077514648437500e+02
7.596510009765625000e+02
7.591945800781250000e+02
7.612619628906250000e+02
7.688634643554687500e+02
7.835750122070312500e+02
8.049930419921875000e+02
8.309581909179687500e+02
8.586607055664062500e+02
8.857523803710937500e+02
9.106411743164062500e+02
9.325467529296875000e+02
9.512902832031250000e+02
9.671005249023437500e+02
9.804290161132812500e+02
9.916849365234375000e+02
1.001132629394531250e+03
1.008872192382812500e+03
1.015059204101562500e+03
1.020206237792968750e+03
1.025248901367187500e+03
1.031176757812500000e+03
1.038495727539062500e+03
1.047124023437500000e+03
1.056647583007812500e+03
1.066628906250000000e+03
1.076794555664062500e+03
1.086956909179687500e+03
1.096939453125000000e+03
1.106448242187500000e+03
1.115180664062500000e+03
1.122822021484375000e+03
1.128951416015625000e+03
1.133118774414062500e+03
1.134974731445312500e+03
1.134382690429687500e+03
1.131430786132812500e+03
1.126273559570312500e+03
1.118945190429687500e+03
1.109323120117187500e+03
1.097405151367187500e+03
1.083555297851562500e+03
1.068475952148437500e+03
1.053218750000000000e+03
1.038697143554687500e+03
1.025088256835937500e+03
1.011799316406250000e+03
9.980021362304687500e+02
9.834343261718750000e+02
9.687521362304687500e+02
9.551254272460937500e+02
9.433072509765625000e+02
9.331446533203125000e+02
9.237803955078125000e+02
9.145579223632812500e+02
9.057892456054687500e+02
8.986135253906250000e+02
8.941113281250000000e+02
8.925046386718750000e+02
8.927872314453125000e+02
8.932406616210937500e+02
8.924223632812500000e+02
8.898496704101562500e+02
8.861153564453125000e+02
8.823341064453125000e+02
8.796287231445312500e+02
8.787077636718750000e+02
8.797127685546875000e+02
8.822495117187500000e+02
8.854864501953125000e+02
8.883867797851562500e+02
8.900744018554687500e+02
8.901672363281250000e+02
8.889432373046875000e+02
8.871383666992187500e+02
8.856096191406250000e+02
8.848934326171875000e+02
8.850749511718750000e+02
8.858446655273437500e+02
8.867156982421875000e+02
8.873128051757812500e+02
8.876151733398437500e+02
8.878756103515625000e+02
8.884155883789062500e+02
8.892935180664062500e+02
8.903195800781250000e+02
8.911723632812500000e+02
8.916402587890625000e+02
8.917060546875000000e+02
8.914100341796875000e+02
8.909514160156250000e+02
8.906179199218750000e+02
8.907620849609375000e+02
8.917073974609375000e+02
8.935471191406250000e+02
8.959163208007812500e+02
8.981549682617187500e+02
8.996674194335937500e+02
9.003664550781250000e+02
9.005443115234375000e+02
9.005202026367187500e+02
9.002417602539062500e+02
8.993445434570312500e+02
8.974791870117187500e+02
8.948788452148437500e+02
8.928331909179687500e+02
8.935095214843750000e+02
8.992163085937500000e+02
9.112210083007812500e+02
9.291472167968750000e+02
9.509524536132812500e+02
9.735889282226562500e+02
9.938928222656250000e+02
1.009168090820312500e+03
1.017327392578125000e+03
1.017121154785156250e+03
1.008429748535156250e+03
9.924990844726562500e+02
9.718422851562500000e+02
9.496316528320312500e+02
9.289322509765625000e+02
9.120781250000000000e+02
9.003613281250000000e+02
8.937366333007812500e+02
8.911423339843750000e+02
8.909760131835937500e+02
8.918753662109375000e+02
8.930499267578125000e+02
8.941598510742187500e+02
8.950294189453125000e+02
8.955897216796875000e+02
8.959166870117187500e+02
8.962240600585937500e+02
8.967371826171875000e+02
8.974088745117187500e+02
8.977968139648437500e+02
8.973685913085937500e+02
8.960497436523437500e+02
8.944666137695312500e+02
8.942123413085937500e+02
8.983843994140625000e+02
9.108886108398437500e+02
9.338603515625000000e+02
9.643134155273437500e+02
9.920823974609375000e+02
1.001870361328125000e+03
9.794904785156250000e+02
9.194116821289062500e+02
8.291365966796875000e+02
7.271986083984375000e+02
6.354548950195312500e+02
5.704953002929687500e+02
5.390184326171875000e+02
5.385618896484375000e+02
5.613876953125000000e+02
5.986146240234375000e+02
6.418430175781250000e+02
6.835764160156250000e+02
7.177905273437500000e+02
7.408983154296875000e+02
7.528733520507812500e+02
7.567598266601562500e+02
7.569504394531250000e+02
7.576695556640625000e+02
7.622401123046875000e+02
7.727355346679687500e+02
7.896260986328125000e+02
8.117543945312500000e+02
8.367852172851562500e+02
8.622626342773437500e+02
8.866784667968750000e+02
9.094129028320312500e+02
9.301796264648437500e+02
9.485301513671875000e+02
9.639417114257812500e+02
9.765085449218750000e+02
9.870767822265625000e+02
9.966932373046875000e+02
1.005840454101562500e+03
1.014144653320312500e+03
1.021118591308593750e+03
1.026982299804687500e+03
1.032775024414062500e+03
1.039601806640625000e+03
1.047827392578125000e+03
1.056950805664062500e+03
1.066126708984375000e+03
1.074937622070312500e+03
1.083513916015625000e+03
1.092131958007812500e+03
1.100951904296875000e+03
1.109863891601562500e+03
1.118499023437500000e+03
1.126295898437500000e+03
1.132532226562500000e+03
1.136390625000000000e+03
1.137205200195312500e+03
1.134729248046875000e+03
1.129326904296875000e+03
1.121685180664062500e+03
1.112240722656250000e+03
1.101032104492187500e+03
1.088011962890625000e+03
1.073287841796875000e+03
1.057509399414062500e+03
1.041760131835937500e+03
1.026777343750000000e+03
