1.015049987792968750e+03
1.000506103515625000e+03
9.855944213867187500e+02
9.709904785156250000e+02
9.577998046875000000e+02
9.465426635742187500e+02
9.365059204101562500e+02
9.263978271484375000e+02
9.153963012695312500e+02
9.042217407226562500e+02
8.948155517578125000e+02
8.889190063476562500e+02
8.867827758789062500e+02
8.869687500000000000e+02
8.873132324218750000e+02
8.864107055664062500e+02
8.843891601562500000e+02
8.824604492187500000e+02
8.818201904296875000e+02
8.827827758789062500e+02
8.846052856445312500e+02
8.861346435546875000e+02
8.866593017578125000e+02
8.861500854492187500e+02
8.851290893554687500e+02
8.841565551757812500e+02
8.835405273437500000e+02
8.833140258789062500e+02
8.834697875976562500e+02
8.839689331054687500e+02
8.848064575195312500e+02
8.858591918945312500e+02
8.868641357421875000e+02
8.875833740234375000e+02
8.880010375976562500e+02
8.883211059570312500e+02
8.888117065429687500e+02
8.896213989257812500e+02
8.907025756835937500e+02
8.919637451171875000e+02
8.932550659179687500e+02
8.944168090820312500e+02
8.952364501953125000e+02
8.956157226562500000e+02
8.955201416015625000e+02
8.950426635742187500e+02
8.944009399414062500e+02
8.937554321289062500e+02
8.931908569335937500e+02
8.927647705078125000e+02
8.925308837890625000e+02
8.925562744140625000e+02
8.928256225585937500e+02
8.932280273437500000e+02
8.936069335937500000e+02
8.937370605468750000e+02
8.935877075195312500e+02
8.933032836914062500e+02
8.931687011718750000e+02
8.936546630859375000e+02
8.958316040039062500e+02
9.014784545898437500e+02
9.124802856445312500e+02
9.297614135742187500e+02
9.521257324218750000e+02
9.761060180664062500e+02
9.969816894531250000e+02
1.010448181152343750e+03
1.014140625000000000e+03
1.008030029296875000e+03
9.938257446289062500e+02
9.742708740234375000e+02
9.525390014648437500e+02
9.317646484375000000e+02
9.144655761718750000e+02
9.020618286132812500e+02
8.946616210937500000e+02
8.913772583007812500e+02
8.908467407226562500e+02
8.916248779296875000e+02
8.925755004882812500e+02
8.930173950195312500e+02
8.926920776367187500e+02
8.918162231445312500e+02
8.908772583007812500e+02
8.902038574218750000e+02
8.897949218750000000e+02
8.895299682617187500e+02
8.894325561523437500e+02
8.896099853515625000e+02
8.901871337890625000e+02
8.912249145507812500e+02
8.932126464843750000e+02
8.982329711914062500e+02
9.098641967773437500e+02
9.308493652343750000e+02
9.594263305664062500e+02
9.866143798828125000e+02
9.977023315429687500e+02
9.782183837890625000e+02
9.216119384765625000e+02
8.341107177734375000e+02
7.333251342773437500e+02
6.408849487304687500e+02
5.737837524414062500e+02
5.395549316406250000e+02
5.364746704101562500e+02
5.571129150390625000e+02
5.925564575195312500e+02
6.344547119140625000e+02
6.755591430664062500e+02
7.102605590820312500e+02
7.351721801757812500e+02
7.499114379882812500e+02
7.567434692382812500e+02
7.591867675781250000e+02
7.608593139648437500e+02
7.649645996093750000e+02
7.737768554687500000e+02
7.882756958007812500e+02
8.081729125976562500e+02
8.320722656250000000e+02
8.579215087890625000e+02
8.837675781250000000e+02
9.078483886718750000e+02
9.288526611328125000e+02
9.463306274414062500e+02
9.606646118164062500e+02
9.729581909179687500e+02
9.842382812500000000e+02
9.947370605468750000e+02
1.003893249511718750e+03
1.011053588867187500e+03
1.016428771972656250e+03
1.021252563476562500e+03
1.027093383789062500e+03
1.034887695312500000e+03
1.044548950195312500e+03
1.055304687500000000e+03
1.066323364257812500e+03
1.077114868164062500e+03
1.087468627929687500e+03
1.097148681640625000e+03
1.106024169921875000e+03
1.114126098632812500e+03
1.121629882812500000e+03
1.128505004882812500e+03
1.134243164062500000e+03
1.138006835937500000e+03
1.138840820312500000e+03
1.136140747070312500e+03
1.129913940429687500e+03
1.120612670898437500e+03
1.108868774414062500e+03
1.095344970703125000e+03
1.080583984375000000e+03
1.064956054687500000e+03
1.048889160156250000e+03
1.033053833007812500e+03
1.018145080566406250e+03
1.004510742187500000e+03
9.918627929687500000e+02
9.794843139648437500e+02
9.667207031250000000e+02
9.533840332031250000e+02
9.398840942382812500e+02
9.270348510742187500e+02
9.157010498046875000e+02
9.064505615234375000e+02
8.995402832031250000e+02
8.950101318359375000e+02
8.925811157226562500e+02
8.917253417968750000e+02
8.917067871093750000e+02
8.917264404296875000e+02
8.912221679687500000e+02
8.899573364257812500e+02
8.881021118164062500e+02
8.861512451171875000e+02
8.847001342773437500e+02
8.840921630859375000e+02
8.842060546875000000e+02
8.844869995117187500e+02
8.844114379882812500e+02
8.839722290039062500e+02
8.836473388671875000e+02
8.839992065429687500e+02
8.852565917968750000e+02
8.870610351562500000e+02
8.886647949218750000e+02
8.895182495117187500e+02
8.895662841796875000e+02
8.892288208007812500e+02
8.890791015625000000e+02
8.894987182617187500e+02
8.905601196289062500e+02
8.920698852539062500e+02
8.936856689453125000e+02
8.950480957031250000e+02
8.958212890625000000e+02
8.956919555664062500e+02
8.945118408203125000e+02
8.925369873046875000e+02
8.904770507812500000e+02
8.892290039062500000e+02
8.893748779296875000e+02
8.908468017578125000e+02
8.929861450195312500e+02
8.949130249023437500e+02
8.959464721679687500e+02
8.959087524414062500e+02
8.951917114257812500e+02
8.944935913085937500e+02
8.942597656250000000e+02
8.943920898437500000e+02
8.943927612304687500e+02
8.937890014648437500e+02
8.925515136718750000e+02
8.911879272460937500e+02
8.907222290039062500e+02
8.925678710937500000e+02
8.984663085937500000e+02
9.097481079101562500e+02
9.265567016601562500e+02
9.473067626953125000e+02
9.689338378906250000e+02
9.879871826171875000e+02
1.001712524414062500e+03
1.008617126464843750e+03
1.008398376464843750e+03
1.001526977539062500e+03
9.889348754882812500e+02
9.720018310546875000e+02
9.526492919921875000e+02
9.332203369140625000e+02
9.160112304687500000e+02
9.027941284179687500e+02
8.941652832031250000e+02
8.894682617187500000e+02
8.872220458984375000e+02
8.858663330078125000e+02
8.845015869140625000e+02
8.830749511718750000e+02
8.820970458984375000e+02
8.821951293945312500e+02
8.837042236328125000e+02
8.863547973632812500e+02
8.893343505859375000e+02
8.916997680664062500e+02
8.928491821289062500e+02
8.926228027343750000e+02
8.913869628906250000e+02
8.899511108398437500e+02
8.897531738281250000e+02
8.936364135742187500e+02
9.054727783203125000e+02
9.277794189453125000e+02
9.581445312500000000e+02
9.868884277343750000e+02
9.987083129882812500e+02
9.788451538085937500e+02
9.208417358398437500e+02
8.313989257812500000e+02
7.288218994140625000e+02
6.354488525390625000e+02
5.686029052734375000e+02
5.356505737304687500e+02
5.343847656250000000e+02
5.568794555664062500e+02
5.938964233398437500e+02
6.368572998046875000e+02
6.783773803710937500e+02
7.127612915039062500e+02
7.367995605468750000e+02
7.505599975585937500e+02
7.567868041992187500e+02
7.591116333007812500e+02
7.608522338867187500e+02
7.648973999023437500e+02
7.735612792968750000e+02
7.881867065429687500e+02
8.087969970703125000e+02
8.339224853515625000e+02
8.611052856445312500e+02
8.879543457031250000e+02
9.126501464843750000e+02
9.341758422851562500e+02
9.521549072265625000e+02
9.667260131835937500e+02
9.786687622070312500e+02
9.890438232421875000e+02
9.986859130859375000e+02
1.007834167480468750e+03
1.016229797363281250e+03
1.023546203613281250e+03
1.029794433593750000e+03
1.035343383789062500e+03
1.040768920898437500e+03
1.046602416992187500e+03
1.053331298828125000e+03
1.061447875976562500e+03
1.071248535156250000e+03
1.082470458984375000e+03
1.094299316406250000e+03
1.105868408203125000e+03
1.116541625976562500e+03
1.125903564453125000e+03
1.133437622070312500e+03
1.138476318359375000e+03
1.140513427734375000e+03
1.139470581054687500e+03
1.135718383789062500e+03
1.129930419921875000e+03
1.122438842773437500e+03
1.112803344726562500e+03
1.100349243164062500e+03
1.084914184570312500e+03
1.067284545898437500e+03
1.049209228515625000e+03
1.032654052734375000e+03
1.018478759765625000e+03
1.005932434082031250e+03
9.934054565429687500e+02
9.798109130859375000e+02
9.654367065429687500e+02
9.515886230468750000e+02
9.393415527343750000e+02
9.287265625000000000e+02
9.189588623046875000e+02
9.092029418945312500e+02
8.997158203125000000e+02
8.918388061523437500e+02
8.869969482421875000e+02
8.856950073242187500e+02
8.870227661132812500e+02
8.891223144531250000e+02
8.901679687500000000e+02
8.892987670898437500e+02
8.868443603515625000e+02
8.838121948242187500e+02
8.812623291015625000e+02
8.797794799804687500e+02
8.793728637695312500e+02
8.797002563476562500e+02
8.803290405273437500e+02
8.810389404296875000e+02
8.818210449218750000e+02
8.827342529296875000e+02
8.837645263671875000e+02
8.847685546875000000e+02
8.855424194335937500e+02
8.859398803710937500e+02
8.859780273437500000e+02
8.858669433593750000e+02
8.857968750000000000e+02
8.858679199218750000e+02
8.861177368164062500e+02
8.865446166992187500e+02
8.871547241210937500e+02
8.879821777343750000e+02
8.889970703125000000e+02
8.900644531250000000e+02
8.910004272460937500e+02
8.916875610351562500e+02
8.921071777343750000e+02
8.923210449218750000e+02
8.925197753906250000e+02
8.928363037109375000e+02
8.933975219726562500e+02
8.940614013671875000e+02
8.944784545898437500e+02
8.943540039062500000e+02
8.936834716796875000e+02
8.928658447265625000e+02
8.924058837890625000e+02
8.924839477539062500e+02
8.928312988281250000e+02
8.929578857421875000e+02
8.925991821289062500e+02
8.920114135742187500e+02
8.921762084960937500e+02
8.946655273437500000e+02
9.011819458007812500e+02
9.128541259765625000e+02
9.295349121093750000e+02
9.496340942382812500e+02
9.704928588867187500e+02
9.891773071289062500e+02
1.003081176757812500e+03
1.010317199707031250e+03
1.009941894531250000e+03
1.002032165527343750e+03
9.875380249023437500e+02
9.682599487304687500e+02
9.467397460937500000e+02
9.259243774414062500e+02
9.085232543945312500e+02
8.962904052734375000e+02
8.893810424804687500e+02
8.865170288085937500e+02
8.858532714843750000e+02
8.860046997070312500e+02
8.865040893554687500e+02
8.874350585937500000e+02
8.888392944335937500e+02
8.904334106445312500e+02
8.918166503906250000e+02
8.927821044921875000e+02
8.935030517578125000e+02
8.943295898437500000e+02
8.952416992187500000e+02
8.957100830078125000e+02
8.952515258789062500e+02
8.944684448242187500e+02
8.964403686523437500e+02
9.062322387695312500e+02
9.275432128906250000e+02
9.582987670898437500e+02
9.882141723632812500e+02
1.001080078125000000e+03
9.815741577148437500e+02
9.234351806640625000e+02
8.338422241210937500e+02
7.313841552734375000e+02
6.383135375976562500e+02
5.717695312500000000e+02
5.390622558593750000e+02
5.382417602539062500e+02
5.615612182617187500e+02
5.996216430664062500e+02
6.435127563476562500e+02
6.855833129882812500e+02
7.200434570312500000e+02
7.437124633789062500e+02
7.566124877929687500e+02
7.612937011718750000e+02
7.616330566406250000e+02
7.615134887695312500e+02
7.644461669921875000e+02
7.729558105468750000e+02
7.879904785156250000e+02
8.088815917968750000e+02
8.337709350585937500e+02
8.602234497070312500e+02
8.861378784179687500e+02
9.098756713867187500e+02
9.303314208984375000e+02
9.470936889648437500e+02
9.604340820312500000e+02
9.713775634765625000e+02
9.812283935546875000e+02
9.909728393554687500e+02
1.000764526367187500e+03
1.010151245117187500e+03
1.018527832031250000e+03
1.025749389648437500e+03
1.032307373046875000e+03
1.039153686523437500e+03
1.047208251953125000e+03
1.057031982421875000e+03
1.068421386718750000e+03
1.080489746093750000e+03
1.091931396484375000e+03
1.101607543945312500e+03
1.109354248046875000e+03
1.115948974609375000e+03
1.122421386718750000e+03
1.129203125000000000e+03
1.135673950195312500e+03
1.140465820312500000e+03
1.142208618164062500e+03
1.140207031250000000e+03
1.134716430664062500e+03
1.126457885742187500e+03
1.115981567382812500e+03
1.103553833007812500e+03
1.089430297851562500e+03
1.074046142578125000e+03
1.058217651367187500e+03
1.042831909179687500e+03
1.028140014648437500e+03
1.013615234375000000e+03
9.986315307617187500e+02
9.832644042968750000e+02
9.684554443359375000e+02
9.552783813476562500e+02
9.440627441406250000e+02
9.341925048828125000e+02
9.246706542968750000e+02
9.148387451171875000e+02
9.051840820312500000e+02
8.970947875976562500e+02
8.919042968750000000e+02
8.900875854492187500e+02
8.909153442382812500e+02
8.927770385742187500e+02
8.939384155273437500e+02
8.934246826171875000e+02
8.914384765625000000e+02
8.889656982421875000e+02
8.870416870117187500e+02
8.861430664062500000e+02
8.860425415039062500e+02
8.862092285156250000e+02
8.862190551757812500e+02
8.859977416992187500e+02
8.856168823242187500e+02
8.850818481445312500e+02
8.844443969726562500e+02
8.839038085937500000e+02
8.838442993164062500e+02
8.845072021484375000e+02
8.857421875000000000e+02
8.870660400390625000e+02
8.879237670898437500e+02
8.881945800781250000e+02
8.881707763671875000e+02
8.882009887695312500e+02
8.884000854492187500e+02
8.885510253906250000e+02
8.883568115234375000e+02
8.877673339843750000e+02
8.871321411132812500e+02
8.869342041015625000e+02
8.873883056640625000e+02
8.884206542968750000e+02
8.897200317382812500e+02
8.909338989257812500e+02
8.918579101562500000e+02
8.923201293945312500e+02
8.923405761718750000e+02
8.920686035156250000e+02
8.918051147460937500e+02
8.919199218750000000e+02
8.926562500000000000e+02
8.939755859375000000e+02
8.955492553710937500e+02
8.968551635742187500e+02
8.973212280273437500e+02
8.967350463867187500e+02
8.957510986328125000e+02
8.960954589843750000e+02
9.002667236328125000e+02
9.103264160156250000e+02
9.266384277343750000e+02
9.476226196289062500e+02
9.702236328125000000e+02
9.909170532226562500e+02
1.006528991699218750e+03
1.014892089843750000e+03
1.015168640136718750e+03
1.007790771484375000e+03
9.941473388671875000e+02
9.762233886718750000e+02
9.562929687500000000e+02
9.366552734375000000e+02
9.194838256835937500e+02
9.064046020507812500e+02
8.979641113281250000e+02
8.934829101562500000e+02
8.916035156250000000e+02
8.911549682617187500e+02
8.915239868164062500e+02
8.923800659179687500e+02
8.934060668945312500e+02
8.942854003906250000e+02
8.948024902343750000e+02
8.948560180664062500e+02
8.943250122070312500e+02
8.931441650390625000e+02
8.913591918945312500e+02
8.892977905273437500e+02
8.875700683593750000e+02
8.870504150390625000e+02
8.890053100585937500e+02
8.958510742187500000e+02
9.107905883789062500e+02
9.354909667968750000e+02
9.668063964843750000e+02
9.947775268554687500e+02
1.004483642578125000e+03
9.821764526367187500e+02
9.224526977539062500e+02
8.324479980468750000e+02
7.301478271484375000e+02
6.371527709960937500e+02
5.705379638671875000e+02
5.380344848632812500e+02
5.380984497070312500e+02
5.629523315429687500e+02
6.026447753906250000e+02
6.473576660156250000e+02
6.887849731445312500e+02
7.211999511718750000e+02
7.421159057617187500e+02
7.523858032226562500e+02
7.552576293945312500e+02
7.546933593750000000e+02
7.544713134765625000e+02
7.579475708007812500e+02
7.675458374023437500e+02
7.841252441406250000e+02
8.066921386718750000e+02
8.328617553710937500e+02
8.598817749023437500e+02
8.858468627929687500e+02
9.097642211914062500e+02
9.310747680664062500e+02
9.493149414062500000e+02
9.641575927734375000e+02
9.758116455078125000e+02
9.850476684570312500e+02
9.929353027343750000e+02
1.000268493652343750e+03
1.007261962890625000e+03
1.013907409667968750e+03
1.020383117675781250e+03
1.027145141601562500e+03
1.034762817382812500e+03
1.043646362304687500e+03
1.053813598632812500e+03
1.064820068359375000e+03
1.075952026367187500e+03
1.086538208007812500e+03
1.096288696289062500e+03
1.105301391601562500e+03
1.113776489257812500e+03
1.121761840820312500e+03
1.128763305664062500e+03
1.133893920898437500e+03
1.136556518554687500e+03
1.136650878906250000e+03
1.134449340820312500e+03
1.130120605468750000e+03
1.123368652343750000e+03
1.113489501953125000e+03
1.100168212890625000e+03
1.084172729492187500e+03
1.067158691406250000e+03
1.051106933593750000e+03
1.037249145507812500e+03
1.025352416992187500e+03
1.013905273437500000e+03
1.001106994628906250e+03
9.861683959960937500e+02
9.697873535156250000e+02
9.535598754882812500e+02
9.387973022460937500e+02
9.258784790039062500e+02
9.145480346679687500e+02
9.044317016601562500e+02
8.957498779296875000e+02
8.892843627929687500e+02
8.855716552734375000e+02
8.843253784179687500e+02
8.844663085937500000e+02
8.847463989257812500e+02
8.844207763671875000e+02
8.835579223632812500e+02
8.828092651367187500e+02
8.828435668945312500e+02
8.838961181640625000e+02
8.854563598632812500e+02
8.867089233398437500e+02
8.870702514648437500e+02
8.864598999023437500e+02
8.852661132812500000e+02
8.842192993164062500e+02
8.839114379882812500e+02
8.845727539062500000e+02
8.859174804687500000e+02
8.873502197265625000e+02
8.883591918945312500e+02
8.887562255859375000e+02
8.886759643554687500e+02
8.883813476562500000e+02
8.880954589843750000e+02
8.878439331054687500e+02
8.876422119140625000e+02
8.875919799804687500e+02
8.878918457031250000e+02
8.885989990234375000e+02
8.895181884765625000e+02
8.902138061523437500e+02
8.903151245117187500e+02
8.897472534179687500e+02
8.889376831054687500e+02
8.885754394531250000e+02
8.892246093750000000e+02
8.909804077148437500e+02
8.934121704101562500e+02
8.958458251953125000e+02
8.976450195312500000e+02
8.985511474609375000e+02
8.986024169921875000e+02
8.980772094726562500e+02
8.973754272460937500e+02
8.968740234375000000e+02
8.966068725585937500e+02
8.962432250976562500e+02
8.954708862304687500e+02
8.947542114257812500e+02
8.957236938476562500e+02
9.008292846679687500e+02
9.118685302734375000e+02
9.287758789062500000e+02
9.493728027343750000e+02
9.703402099609375000e+02
9.886936645507812500e+02
1.002371459960937500e+03
1.010049621582031250e+03
1.010794372558593750e+03
1.004095214843750000e+03
9.903085327148437500e+02
9.712429809570312500e+02
9.499485473632812500e+02
9.299024047851562500e+02
9.137791137695312500e+02
9.027461547851562500e+02
8.963425903320312500e+02
8.931270751953125000e+02
8.915898437500000000e+02
8.908135986328125000e+02
8.906707153320312500e+02
8.913472900390625000e+02
8.928461303710937500e+02
8.947927856445312500e+02
8.966132812500000000e+02
8.978135986328125000e+02
8.981737670898437500e+02
8.977670288085937500e+02
8.966003417968750000e+02
8.945464477539062500e+02
8.918472900390625000e+02
8.898307495117187500e+02
8.919117431640625000e+02
9.027757568359375000e+02
9.251798095703125000e+02
9.562219848632812500e+02
9.852724609375000000e+02
9.964520874023437500e+02
9.752453002929687500e+02
9.160968017578125000e+02
8.265142211914062500e+02
7.249449462890625000e+02
6.331054077148437500e+02
5.674321289062500000e+02
5.347501831054687500e+02
5.330208129882812500e+02
5.550836791992187500e+02
5.925921630859375000e+02
6.373903198242187500e+02
6.816712646484375000e+02
7.186300659179687500e+02
7.437786254882812500e+02
7.563889770507812500e+02
7.592825927734375000e+02
7.572489624023437500e+02
7.554215698242187500e+02
7.581486816406250000e+02
7.679963989257812500e+02
7.852848510742187500e+02
8.084249267578125000e+02
8.346990356445312500e+02
8.613367919921875000e+02
8.864227905273437500e+02
9.090230102539062500e+02
9.287980957031250000e+02
9.457911987304687500e+02
9.603088989257812500e+02
9.728766479492187500e+02
9.840373535156250000e+02
9.942290039062500000e+02
1.003649658203125000e+03
1.012169006347656250e+03
1.019478088378906250e+03
1.025469604492187500e+03
1.030485473632812500e+03
1.035300292968750000e+03
1.040951293945312500e+03
1.048351684570312500e+03
1.057858154296875000e+03
1.069012207031250000e+03
1.080668457031250000e+03
1.091561645507812500e+03
1.101024780273437500e+03
1.109287353515625000e+03
1.117181396484375000e+03
1.125147583007812500e+03
1.132473266601562500e+03
1.137588378906250000e+03
1.138993530273437500e+03
1.136065917968750000e+03
1.129322265625000000e+03
1.119886596679687500e+03
1.108703491210937500e+03
1.096295166015625000e+03
1.082883666992187500e+03
1.068568115234375000e+03
1.053742187500000000e+03
1.039079345703125000e+03
1.025038085937500000e+03
1.011460876464843750e+03
9.977176513671875000e+02
9.833918457031250000e+02
9.688010864257812500e+02
9.548502197265625000e+02
9.422879028320312500e+02
9.312159423828125000e+02
9.212221069335937500e+02
9.117862548828125000e+02
9.030767211914062500e+02
8.960247192382812500e+02
8.915740966796875000e+02
8.899861450195312500e+02
8.905506591796875000e+02
8.918752441406250000e+02
8.926055297851562500e+02
8.921111450195312500e+02
8.906106567382812500e+02
8.888175048828125000e+02
8.873552246093750000e+02
8.864555053710937500e+02
8.861136474609375000e+02
8.862843627929687500e+02
8.868707275390625000e+02
8.877774047851562500e+02
8.888383178710937500e+02
8.898358154296875000e+02
8.906203002929687500e+02
8.910172729492187500e+02
8.908092041015625000e+02
8.899513549804687500e+02
8.887163085937500000e+02
8.876196289062500000e+02
8.871759643554687500e+02
8.875039672851562500e+02
8.882987060546875000e+02
8.890952758789062500e+02
8.895895385742187500e+02
8.898442993164062500e+02
8.901118774414062500e+02
8.905029907226562500e+02
8.908861083984375000e+02
8.911419677734375000e+02
8.912954711914062500e+02
8.915643920898437500e+02
8.921196289062500000e+02
8.928794555664062500e+02
8.935612182617187500e+02
8.939323120117187500e+02
8.939756469726562500e+02
8.938497314453125000e+02
8.936594238281250000e+02
8.933627319335937500e+02
8.929774169921875000e+02
8.927441406250000000e+02
8.930709228515625000e+02
8.940698242187500000e+02
8.952955932617187500e+02
8.960731811523437500e+02
8.964093017578125000e+02
8.977077636718750000e+02
9.026173706054687500e+02
9.135308227539062500e+02
9.309783935546875000e+02
9.529303588867187500e+02
9.755504150390625000e+02
9.948589477539062500e+02
1.008125915527343750e+03
1.014149536132812500e+03
1.012831848144531250e+03
1.004624450683593750e+03
9.902947387695312500e+02
9.713098754882812500e+02
9.500377807617187500e+02
9.294726562500000000e+02
9.123309936523437500e+02
9.001221923828125000e+02
8.927869873046875000e+02
8.892848510742187500e+02
8.883455810546875000e+02
8.888696289062500000e+02
8.901156005859375000e+02
8.915281982421875000e+02
8.926495971679687500e+02
8.932887573242187500e+02
8.935151367187500000e+02
8.935986938476562500e+02
8.937212524414062500e+02
8.937723388671875000e+02
8.935117187500000000e+02
8.927539062500000000e+02
8.916516113281250000e+02
8.908775024414062500e+02
8.919345703125000000e+02
8.976812133789062500e+02
9.115784301757812500e+02
9.353859863281250000e+02
9.660668334960937500e+02
9.938153686523437500e+02
1.003831665039062500e+03
9.821932373046875000e+02
9.231409912109375000e+02
8.333943481445312500e+02
7.306270751953125000e+02
6.363679199218750000e+02
5.676847534179687500e+02
5.324530639648437500e+02
5.294141235351562500e+02
5.514242553710937500e+02
5.893129882812500000e+02
6.338780517578125000e+02
6.768304443359375000e+02
7.118382568359375000e+02
7.354380493164062500e+02
7.478128051757812500e+02
7.521762084960937500e+02
7.529757080078125000e+02
7.543494873046875000e+02
7.595090332031250000e+02
7.703074951171875000e+02
7.871232910156250000e+02
8.090536499023437500e+02
8.343637695312500000e+02
8.612243652343750000e+02
8.881058349609375000e+02
9.136080932617187500e+02
9.364506835937500000e+02
9.556481323242187500e+02
9.707639770507812500e+02
9.822803955078125000e+02
9.913516235351562500e+02
9.991517333984375000e+02
1.006482177734375000e+03
1.013809387207031250e+03
1.021249633789062500e+03
1.028743164062500000e+03
1.036316894531250000e+03
1.044198486328125000e+03
1.052975708007812500e+03
1.063147949218750000e+03
1.074745971679687500e+03
1.087156860351562500e+03
1.099338134765625000e+03
1.110338989257812500e+03
1.119627685546875000e+03
1.126954956054687500e+03
1.132120239257812500e+03
1.134870605468750000e+03
1.135184326171875000e+03
1.133311523437500000e+03
1.129629638671875000e+03
1.124368041992187500e+03
1.117358642578125000e+03
1.108195068359375000e+03
1.096558837890625000e+03
1.082616333007812500e+03
1.067082031250000000e+03
1.051113159179687500e+03
