2.607678593750000000e+05
2.607580312500000000e+05
2.607742656250000000e+05
2.608267656250000000e+05
2.608929531250000000e+05
2.609565781250000000e+05
2.609981875000000000e+05
2.609851250000000000e+05
2.609220312500000000e+05
2.608532968750000000e+05
2.608018593750000000e+05
2.607696093750000000e+05
2.607641875000000000e+05
2.607755625000000000e+05
2.607802656250000000e+05
2.607827500000000000e+05
2.607912187500000000e+05
2.607905625000000000e+05
2.607830000000000000e+05
2.607887343750000000e+05
2.607961093750000000e+05
2.607864062500000000e+05
2.607779375000000000e+05
2.607855468750000000e+05
2.607919531250000000e+05
2.607874687500000000e+05
2.607788125000000000e+05
2.607710468750000000e+05
2.607770781250000000e+05
2.608019531250000000e+05
2.608193906250000000e+05
2.608128437500000000e+05
2.608012812500000000e+05
2.608048906250000000e+05
2.608236718750000000e+05
2.608431250000000000e+05
2.608188593750000000e+05
2.607819218750000000e+05
2.609084218750000000e+05
2.612835937500000000e+05
2.616930625000000000e+05
2.618714062500000000e+05
2.618368750000000000e+05
2.617812031250000000e+05
2.617813437500000000e+05
2.617950468750000000e+05
2.617982656250000000e+05
2.617972656250000000e+05
2.617977812500000000e+05
2.617960156250000000e+05
2.617944062500000000e+05
2.617953906250000000e+05
2.617987031250000000e+05
2.618015000000000000e+05
2.618019375000000000e+05
2.618005625000000000e+05
2.617990312500000000e+05
2.617980468750000000e+05
2.617984843750000000e+05
2.618011093750000000e+05
2.618049062500000000e+05
2.618071406250000000e+05
2.618062968750000000e+05
2.618039843750000000e+05
2.618035468750000000e+05
2.618066875000000000e+05
2.618115937500000000e+05
2.618142812500000000e+05
2.618135625000000000e+05
2.618125937500000000e+05
2.618146875000000000e+05
2.618192031250000000e+05
2.618243593750000000e+05
2.618289687500000000e+05
2.618314062500000000e+05
2.618302968750000000e+05
2.618272812500000000e+05
2.618246250000000000e+05
2.618225781250000000e+05
2.618205468750000000e+05
2.618181406250000000e+05
2.618141718750000000e+05
2.618078125000000000e+05
2.618006406250000000e+05
2.617940000000000000e+05
2.617877656250000000e+05
2.617825625000000000e+05
2.617797031250000000e+05
2.617786875000000000e+05
2.617780625000000000e+05
2.617775937500000000e+05
2.617768437500000000e+05
2.617760781250000000e+05
2.617766562500000000e+05
2.617786250000000000e+05
2.617793281250000000e+05
2.617782187500000000e+05
2.617785312500000000e+05
2.617811875000000000e+05
2.617825156250000000e+05
2.617803750000000000e+05
2.617776250000000000e+05
2.617771250000000000e+05
2.617775000000000000e+05
2.617771250000000000e+05
2.617769531250000000e+05
2.617776093750000000e+05
2.617776562500000000e+05
2.617765937500000000e+05
2.617772500000000000e+05
2.617805468750000000e+05
2.617836718750000000e+05
2.617837187500000000e+05
2.617818281250000000e+05
2.617811562500000000e+05
2.617830000000000000e+05
2.617851093750000000e+05
2.617852031250000000e+05
2.617836718750000000e+05
2.617825937500000000e+05
2.617832187500000000e+05
2.617840625000000000e+05
2.617833125000000000e+05
2.617817968750000000e+05
2.617826093750000000e+05
2.617861718750000000e+05
2.617886250000000000e+05
2.617875781250000000e+05
2.617851718750000000e+05
2.617839843750000000e+05
2.617835312500000000e+05
2.617831250000000000e+05
2.617830156250000000e+05
2.617833125000000000e+05
2.617832031250000000e+05
2.617820468750000000e+05
2.617814218750000000e+05
2.617828281250000000e+05
2.617860781250000000e+05
2.617898125000000000e+05
2.617936718750000000e+05
2.617988125000000000e+05
2.618052343750000000e+05
2.618107500000000000e+05
2.618129218750000000e+05
2.618112500000000000e+05
2.618078593750000000e+05
2.618056875000000000e+05
2.618050312500000000e+05
2.618035468750000000e+05
2.617994062500000000e+05
2.617938593750000000e+05
2.617897187500000000e+05
2.617881875000000000e+05
2.617875468750000000e+05
2.617859531250000000e+05
2.617841250000000000e+05
2.617845000000000000e+05
2.617866718750000000e+05
2.617879218750000000e+05
2.617863125000000000e+05
2.617834687500000000e+05
2.617825781250000000e+05
2.617843906250000000e+05
2.617860000000000000e+05
2.617850468750000000e+05
2.617835468750000000e+05
2.617847812500000000e+05
2.617871718750000000e+05
2.617842500000000000e+05
2.617741250000000000e+05
2.617664531250000000e+05
2.617767187500000000e+05
2.618108437500000000e+05
2.618614843750000000e+05
2.619158750000000000e+05
2.619588906250000000e+05
2.619732968750000000e+05
2.619503750000000000e+05
2.619005625000000000e+05
2.618447031250000000e+05
2.618011093750000000e+05
2.617805000000000000e+05
2.617823437500000000e+05
2.617935000000000000e+05
2.618000156250000000e+05
2.618000312500000000e+05
2.617995000000000000e+05
2.618003906250000000e+05
2.618003125000000000e+05
2.617986406250000000e+05
2.617976093750000000e+05
2.617979531250000000e+05
2.617977656250000000e+05
2.617960937500000000e+05
2.617948125000000000e+05
2.617959375000000000e+05
2.617989062500000000e+05
2.618016562500000000e+05
2.618025468750000000e+05
2.618011093750000000e+05
2.617986406250000000e+05
2.617985312500000000e+05
2.618022187500000000e+05
2.618064062500000000e+05
2.618068437500000000e+05
2.618043125000000000e+05
2.618030156250000000e+05
2.618056875000000000e+05
2.618115468750000000e+05
2.618174062500000000e+05
2.618201562500000000e+05
2.618189531250000000e+05
2.618156093750000000e+05
2.618135781250000000e+05
2.618152656250000000e+05
2.618201093750000000e+05
2.618249375000000000e+05
2.618273750000000000e+05
2.618284062500000000e+05
2.618296875000000000e+05
2.618310156250000000e+05
2.618309843750000000e+05
2.618294375000000000e+05
2.618279531250000000e+05
2.618273125000000000e+05
2.618264062500000000e+05
2.618228437500000000e+05
2.618157187500000000e+05
2.618067812500000000e+05
2.617986562500000000e+05
2.617927500000000000e+05
2.617877343750000000e+05
2.617825468750000000e+05
2.617785312500000000e+05
2.617771875000000000e+05
2.617770625000000000e+05
2.617762031250000000e+05
2.617760625000000000e+05
2.617782500000000000e+05
2.617807187500000000e+05
2.617801718750000000e+05
2.617778593750000000e+05
2.617771562500000000e+05
2.617782656250000000e+05
2.617781875000000000e+05
2.617768281250000000e+05
2.617772500000000000e+05
2.617796718750000000e+05
2.617807031250000000e+05
2.617797343750000000e+05
2.617795468750000000e+05
2.617810000000000000e+05
2.617811875000000000e+05
2.617797968750000000e+05
2.617796875000000000e+05
2.617815781250000000e+05
2.617824375000000000e+05
2.617811562500000000e+05
2.617808906250000000e+05
2.617839687500000000e+05
2.617877656250000000e+05
2.617880000000000000e+05
2.617850781250000000e+05
2.617831406250000000e+05
2.617837187500000000e+05
2.617852343750000000e+05
2.617853125000000000e+05
2.617828750000000000e+05
2.617803125000000000e+05
2.617814687500000000e+05
2.617859375000000000e+05
2.617883281250000000e+05
2.617865312500000000e+05
2.617847187500000000e+05
2.617857656250000000e+05
2.617871406250000000e+05
2.617862812500000000e+05
2.617844062500000000e+05
2.617842500000000000e+05
2.617851875000000000e+05
2.617850625000000000e+05
2.617836406250000000e+05
2.617824531250000000e+05
2.617831093750000000e+05
2.617864531250000000e+05
2.617914218750000000e+05
2.617957968750000000e+05
2.617987343750000000e+05
2.618026562500000000e+05
2.618082500000000000e+05
2.618116718750000000e+05
2.618104375000000000e+05
2.618067343750000000e+05
2.618042187500000000e+05
2.618044531250000000e+05
2.618060156250000000e+05
2.618046562500000000e+05
2.617978125000000000e+05
2.617889375000000000e+05
2.617842500000000000e+05
2.617849375000000000e+05
2.617868750000000000e+05
2.617870625000000000e+05
2.617863593750000000e+05
2.617860625000000000e+05
2.617857812500000000e+05
2.617850781250000000e+05
2.617845625000000000e+05
2.617846093750000000e+05
2.617847343750000000e+05
2.617851093750000000e+05
2.617855625000000000e+05
2.617854531250000000e+05
2.617855781250000000e+05
2.617860000000000000e+05
2.617825625000000000e+05
2.617729531250000000e+05
2.617660312500000000e+05
2.617770937500000000e+05
2.618120468750000000e+05
2.618637187500000000e+05
2.619187968750000000e+05
2.619604531250000000e+05
2.619716875000000000e+05
2.619466562500000000e+05
2.618963750000000000e+05
2.618398125000000000e+05
2.617945468750000000e+05
2.617736875000000000e+05
2.617790781250000000e+05
2.617958437500000000e+05
2.618050000000000000e+05
2.618025468750000000e+05
2.617992031250000000e+05
2.618017187500000000e+05
2.618055468750000000e+05
2.618050000000000000e+05
2.618024218750000000e+05
2.618012500000000000e+05
2.618001093750000000e+05
2.617973906250000000e+05
2.617958281250000000e+05
2.617965781250000000e+05
2.617968437500000000e+05
2.617952656250000000e+05
2.617946562500000000e+05
2.617966406250000000e+05
2.617994062500000000e+05
2.618014375000000000e+05
2.618027812500000000e+05
2.618037500000000000e+05
2.618041250000000000e+05
2.618040625000000000e+05
2.618042500000000000e+05
2.618045937500000000e+05
2.618042812500000000e+05
2.618042031250000000e+05
2.618065000000000000e+05
2.618110937500000000e+05
2.618152343750000000e+05
2.618167812500000000e+05
2.618166718750000000e+05
2.618171093750000000e+05
2.618193750000000000e+05
2.618231093750000000e+05
2.618272500000000000e+05
2.618307187500000000e+05
2.618329375000000000e+05
2.618330312500000000e+05
2.618305625000000000e+05
2.618269062500000000e+05
2.618245625000000000e+05
2.618245156250000000e+05
2.618242968750000000e+05
2.618203281250000000e+05
2.618119687500000000e+05
2.618028125000000000e+05
2.617955937500000000e+05
2.617900000000000000e+05
2.617853125000000000e+05
2.617820937500000000e+05
2.617801875000000000e+05
2.617784687500000000e+05
2.617768593750000000e+05
2.617759531250000000e+05
2.617755468750000000e+05
2.617751406250000000e+05
2.617749687500000000e+05
2.617757031250000000e+05
2.617773437500000000e+05
2.617790156250000000e+05
2.617798437500000000e+05
2.617802968750000000e+05
2.617817500000000000e+05
2.617829843750000000e+05
2.617817812500000000e+05
2.617788281250000000e+05
2.617770000000000000e+05
2.617780156250000000e+05
2.617805156250000000e+05
2.617819531250000000e+05
2.617808437500000000e+05
2.617790781250000000e+05
2.617799843750000000e+05
2.617826250000000000e+05
2.617832812500000000e+05
2.617821875000000000e+05
2.617823593750000000e+05
2.617837968750000000e+05
2.617832187500000000e+05
2.617803281250000000e+05
2.617791875000000000e+05
2.617816093750000000e+05
2.617841562500000000e+05
2.617840156250000000e+05
2.617830625000000000e+05
2.617830312500000000e+05
2.617826562500000000e+05
2.617811875000000000e+05
2.617809218750000000e+05
2.617826718750000000e+05
2.617843906250000000e+05
2.617848437500000000e+05
2.617850937500000000e+05
2.617856093750000000e+05
2.617852031250000000e+05
2.617836562500000000e+05
2.617825000000000000e+05
2.617828437500000000e+05
2.617847187500000000e+05
2.617871562500000000e+05
2.617892500000000000e+05
2.617907968750000000e+05
2.617929062500000000e+05
2.617970937500000000e+05
2.618023281250000000e+05
2.618055000000000000e+05
2.618059375000000000e+05
2.618061562500000000e+05
2.618074062500000000e+05
2.618074843750000000e+05
2.618054843750000000e+05
2.618045312500000000e+05
2.618062656250000000e+05
2.618067187500000000e+05
2.618012343750000000e+05
2.617912343750000000e+05
2.617827656250000000e+05
2.617804687500000000e+05
2.617833125000000000e+05
2.617866875000000000e+05
2.617866718750000000e+05
2.617841718750000000e+05
2.617833750000000000e+05
2.617857812500000000e+05
2.617883437500000000e+05
2.617883281250000000e+05
2.617863125000000000e+05
2.617840625000000000e+05
2.617829062500000000e+05
2.617838593750000000e+05
2.617866562500000000e+05
2.617878906250000000e+05
2.617825937500000000e+05
2.617717812500000000e+05
2.617665781250000000e+05
2.617795937500000000e+05
2.618142968750000000e+05
2.618652343750000000e+05
2.619205937500000000e+05
2.619618750000000000e+05
2.619703750000000000e+05
2.619421562500000000e+05
2.618899843750000000e+05
2.618332656250000000e+05
2.617905937500000000e+05
2.617742031250000000e+05
2.617803750000000000e+05
2.617924843750000000e+05
2.617987031250000000e+05
2.617998125000000000e+05
2.617998906250000000e+05
2.617994687500000000e+05
2.617984531250000000e+05
2.617982031250000000e+05
2.617990781250000000e+05
2.617990468750000000e+05
2.617968125000000000e+05
2.617942500000000000e+05
2.617944687500000000e+05
2.617977187500000000e+05
2.618010625000000000e+05
2.618019218750000000e+05
2.617999687500000000e+05
2.617977031250000000e+05
2.617981406250000000e+05
2.618009062500000000e+05
2.618025156250000000e+05
2.618020937500000000e+05
2.618020781250000000e+05
2.618031093750000000e+05
2.618034687500000000e+05
2.618025468750000000e+05
2.618017968750000000e+05
2.618024687500000000e+05
2.618050468750000000e+05
2.618089843750000000e+05
2.618124843750000000e+05
2.618139062500000000e+05
2.618137031250000000e+05
2.618140468750000000e+05
2.618156875000000000e+05
2.618183906250000000e+05
2.618223437500000000e+05
2.618276250000000000e+05
2.618325156250000000e+05
2.618340625000000000e+05
2.618322031250000000e+05
2.618295625000000000e+05
2.618280781250000000e+05
2.618275781250000000e+05
2.618265000000000000e+05
2.618240625000000000e+05
2.618201718750000000e+05
2.618140156250000000e+05
2.618047968750000000e+05
2.617944687500000000e+05
2.617869687500000000e+05
2.617828593750000000e+05
2.617794531250000000e+05
2.617767656250000000e+05
2.617768281250000000e+05
2.617783125000000000e+05
2.617784218750000000e+05
2.617776406250000000e+05
2.617787500000000000e+05
2.617812187500000000e+05
2.617821406250000000e+05
2.617807031250000000e+05
2.617790937500000000e+05
2.617792968750000000e+05
2.617799843750000000e+05
2.617789687500000000e+05
2.617772500000000000e+05
2.617778906250000000e+05
2.617812656250000000e+05
2.617842031250000000e+05
2.617840468750000000e+05
2.617813125000000000e+05
2.617784218750000000e+05
2.617774062500000000e+05
2.617782812500000000e+05
2.617796406250000000e+05
2.617809531250000000e+05
2.617819218750000000e+05
2.617824218750000000e+05
2.617830937500000000e+05
2.617844843750000000e+05
2.617857343750000000e+05
2.617853281250000000e+05
2.617837500000000000e+05
2.617827343750000000e+05
2.617830937500000000e+05
2.617835312500000000e+05
2.617833125000000000e+05
2.617837656250000000e+05
2.617858593750000000e+05
2.617873437500000000e+05
2.617860625000000000e+05
2.617842656250000000e+05
2.617847656250000000e+05
2.617862187500000000e+05
2.617854531250000000e+05
2.617828281250000000e+05
2.617814375000000000e+05
2.617819843750000000e+05
2.617825000000000000e+05
2.617825312500000000e+05
2.617842187500000000e+05
2.617873906250000000e+05
2.617891250000000000e+05
2.617894218750000000e+05
2.617920625000000000e+05
2.617979687500000000e+05
2.618033125000000000e+05
2.618058593750000000e+05
2.618078125000000000e+05
2.618113906250000000e+05
2.618148281250000000e+05
2.618150625000000000e+05
2.618114375000000000e+05
2.618062500000000000e+05
2.618016562500000000e+05
2.617977500000000000e+05
2.617940156250000000e+05
2.617907812500000000e+05
2.617882656250000000e+05
2.617860000000000000e+05
2.617845156250000000e+05
2.617847187500000000e+05
2.617865312500000000e+05
2.617877187500000000e+05
2.617863437500000000e+05
2.617840781250000000e+05
2.617841562500000000e+05
2.617865781250000000e+05
2.617879375000000000e+05
2.617864531250000000e+05
2.617845156250000000e+05
2.617852187500000000e+05
2.617885000000000000e+05
2.617899687500000000e+05
2.617843906250000000e+05
2.617735000000000000e+05
2.617685781250000000e+05
2.617822968750000000e+05
2.618186875000000000e+05
2.618709843750000000e+05
2.619258437500000000e+05
2.619647812500000000e+05
2.619710312500000000e+05
2.619408125000000000e+05
2.618869218750000000e+05
2.618307031250000000e+05
2.617911562500000000e+05
2.617765937500000000e+05
2.617812656250000000e+05
2.617920781250000000e+05
2.617997656250000000e+05
2.618024843750000000e+05
2.618016250000000000e+05
2.617991250000000000e+05
2.617977500000000000e+05
2.617984218750000000e+05
2.617991250000000000e+05
2.617984843750000000e+05
2.617974375000000000e+05
2.617966093750000000e+05
2.617958125000000000e+05
2.617957656250000000e+05
2.617969531250000000e+05
2.617982187500000000e+05
2.617984218750000000e+05
2.617981562500000000e+05
2.617982500000000000e+05
2.617988281250000000e+05
2.617993437500000000e+05
2.617995312500000000e+05
2.617996875000000000e+05
2.618010781250000000e+05
2.618033750000000000e+05
2.618047656250000000e+05
2.618047968750000000e+05
2.618048281250000000e+05
2.618059062500000000e+05
2.618081562500000000e+05
2.618111718750000000e+05
2.618135937500000000e+05
2.618135468750000000e+05
2.618121718750000000e+05
2.618122656250000000e+05
2.618145625000000000e+05
2.618177187500000000e+05
2.618210781250000000e+05
2.618250781250000000e+05
2.618290468750000000e+05
2.618311875000000000e+05
2.618310468750000000e+05
2.618292187500000000e+05
2.618266718750000000e+05
2.618244218750000000e+05
2.618229531250000000e+05
2.618203437500000000e+05
2.618147187500000000e+05
2.618071562500000000e+05
2.618002812500000000e+05
2.617943437500000000e+05
2.617882343750000000e+05
2.617825937500000000e+05
2.617785000000000000e+05
2.617760468750000000e+05
2.617750000000000000e+05
2.617753906250000000e+05
2.617766250000000000e+05
2.617776562500000000e+05
2.617780312500000000e+05
2.617784375000000000e+05
2.617796875000000000e+05
2.617812500000000000e+05
2.617827968750000000e+05
2.617839375000000000e+05
2.617836875000000000e+05
2.617807031250000000e+05
2.617775781250000000e+05
2.617779375000000000e+05
2.617813750000000000e+05
2.617843125000000000e+05
2.617849687500000000e+05
2.617840781250000000e+05
2.617828281250000000e+05
2.617823437500000000e+05
2.617831406250000000e+05
2.617842968750000000e+05
2.617850625000000000e+05
2.617860000000000000e+05
2.617869687500000000e+05
2.617869843750000000e+05
2.617854218750000000e+05
2.617828437500000000e+05
2.617815000000000000e+05
2.617829687500000000e+05
2.617857500000000000e+05
2.617865937500000000e+05
2.617845625000000000e+05
2.617827187500000000e+05
2.617835781250000000e+05
2.617856093750000000e+05
2.617861875000000000e+05
2.617854531250000000e+05
2.617846718750000000e+05
2.617835625000000000e+05
2.617819218750000000e+05
2.617815156250000000e+05
2.617833593750000000e+05
2.617850000000000000e+05
2.617840156250000000e+05
2.617822968750000000e+05
2.617832500000000000e+05
2.617866406250000000e+05
2.617895937500000000e+05
2.617914062500000000e+05
2.617941562500000000e+05
2.617983281250000000e+05
2.618024375000000000e+05
2.618059843750000000e+05
2.618093437500000000e+05
2.618114531250000000e+05
2.618111250000000000e+05
2.618096250000000000e+05
2.618084218750000000e+05
2.618068593750000000e+05
2.618038281250000000e+05
2.617998593750000000e+05
2.617949843750000000e+05
2.617883906250000000e+05
2.617815156250000000e+05
2.617784375000000000e+05
2.617814062500000000e+05
2.617867812500000000e+05
2.617886875000000000e+05
2.617863125000000000e+05
2.617843906250000000e+05
2.617859218750000000e+05
2.617883593750000000e+05
2.617885781250000000e+05
2.617875000000000000e+05
2.617874062500000000e+05
2.617879687500000000e+05
2.617872500000000000e+05
2.617853281250000000e+05
2.617836562500000000e+05
2.617803281250000000e+05
2.617736250000000000e+05
2.617710156250000000e+05
2.617860468750000000e+05
2.618239375000000000e+05
2.618771875000000000e+05
2.619316718750000000e+05
2.619689531250000000e+05
2.619721562500000000e+05
2.619388750000000000e+05
2.618831562500000000e+05
2.618251562500000000e+05
2.617845468750000000e+05
2.617736093750000000e+05
2.617859375000000000e+05
2.618007500000000000e+05
2.618046562500000000e+05
2.618015000000000000e+05
2.617993906250000000e+05
2.617995937500000000e+05
2.617993125000000000e+05
2.617975000000000000e+05
2.617958437500000000e+05
2.617959531250000000e+05
2.617974062500000000e+05
2.617983281250000000e+05
2.617977656250000000e+05
2.617967031250000000e+05
2.617963593750000000e+05
2.617973281250000000e+05
2.617987500000000000e+05
2.617997500000000000e+05
2.618004687500000000e+05
2.618014375000000000e+05
2.618024687500000000e+05
2.618022968750000000e+05
2.618008281250000000e+05
2.618000781250000000e+05
2.618019687500000000e+05
2.618050781250000000e+05
2.618067343750000000e+05
2.618069843750000000e+05
2.618077343750000000e+05
2.618093437500000000e+05
2.618107968750000000e+05
2.618117500000000000e+05
2.618124375000000000e+05
2.618135937500000000e+05
2.618160468750000000e+05
2.618200781250000000e+05
2.618247812500000000e+05
2.618281875000000000e+05
2.618296562500000000e+05
2.618308593750000000e+05
2.618326093750000000e+05
2.618326250000000000e+05
2.618296406250000000e+05
2.618261562500000000e+05
2.618238281250000000e+05
2.618211250000000000e+05
2.618170625000000000e+05
2.618125000000000000e+05
2.618067812500000000e+05
2.617987187500000000e+05
2.617895781250000000e+05
2.617818750000000000e+05
2.617776406250000000e+05
2.617775156250000000e+05
2.617796406250000000e+05
2.617806093750000000e+05
2.617794218750000000e+05
2.617784531250000000e+05
2.617794687500000000e+05
2.617808125000000000e+05
2.617803750000000000e+05
2.617787656250000000e+05
2.617785781250000000e+05
2.617801875000000000e+05
2.617810312500000000e+05
2.617807500000000000e+05
2.617815625000000000e+05
2.617837812500000000e+05
2.617848437500000000e+05
2.617831718750000000e+05
2.617798281250000000e+05
2.617770937500000000e+05
2.617758906250000000e+05
2.617760000000000000e+05
2.617768750000000000e+05
2.617781406250000000e+05
2.617792968750000000e+05
2.617796406250000000e+05
2.617794687500000000e+05
2.617805156250000000e+05
2.617828281250000000e+05
2.617841718750000000e+05
2.617830937500000000e+05
2.617815625000000000e+05
2.617819687500000000e+05
2.617831718750000000e+05
2.617827031250000000e+05
2.617810625000000000e+05
2.617813125000000000e+05
2.617842187500000000e+05
2.617871250000000000e+05
2.617870312500000000e+05
2.617847187500000000e+05
2.617833125000000000e+05
2.617844375000000000e+05
2.617861406250000000e+05
2.617862656250000000e+05
2.617853125000000000e+05
2.617849218750000000e+05
2.617856406250000000e+05
2.617876875000000000e+05
2.617903906250000000e+05
2.617921875000000000e+05
2.617927812500000000e+05
2.617943281250000000e+05
2.617980937500000000e+05
2.618022343750000000e+05
2.618041718750000000e+05
2.618038125000000000e+05
2.618034531250000000e+05
2.618052812500000000e+05
2.618084687500000000e+05
2.618094531250000000e+05
2.618067812500000000e+05
2.618026562500000000e+05
2.617988750000000000e+05
2.617942500000000000e+05
2.617875468750000000e+05
2.617817656250000000e+05
2.617807187500000000e+05
2.617836718750000000e+05
2.617862187500000000e+05
2.617862500000000000e+05
2.617847500000000000e+05
2.617829843750000000e+05
2.617825781250000000e+05
2.617845156250000000e+05
2.617873906250000000e+05
2.617882187500000000e+05
2.617869218750000000e+05
2.617861250000000000e+05
2.617878437500000000e+05
2.617909375000000000e+05
2.617905781250000000e+05
2.617822656250000000e+05
2.617702812500000000e+05
2.617688281250000000e+05
2.617896562500000000e+05
2.618313593750000000e+05
2.618845468750000000e+05
2.619373437500000000e+05
2.619725468750000000e+05
2.619722187500000000e+05
2.619340312500000000e+05
2.618756875000000000e+05
2.618204218750000000e+05
2.617840781250000000e+05
2.617726093750000000e+05
2.617816718750000000e+05
2.617975468750000000e+05
2.618069531250000000e+05
2.618068281250000000e+05
2.618031562500000000e+05
2.618016718750000000e+05
2.618024843750000000e+05
2.618030625000000000e+05
2.618025312500000000e+05
2.618016093750000000e+05
2.617999687500000000e+05
2.617973281250000000e+05
2.617960937500000000e+05
2.617980312500000000e+05
2.618007031250000000e+05
2.618011718750000000e+05
2.618004375000000000e+05
2.618006093750000000e+05
2.618011562500000000e+05
2.618014062500000000e+05
2.618015000000000000e+05
2.618013906250000000e+05
2.618020156250000000e+05
2.618048750000000000e+05
2.618082031250000000e+05
2.618083750000000000e+05
2.618062031250000000e+05
2.618059843750000000e+05
2.618084218750000000e+05
2.618103125000000000e+05
2.618105468750000000e+05
2.618112656250000000e+05
2.618126093750000000e+05
2.618128437500000000e+05
2.618127500000000000e+05
2.618157812500000000e+05
