2.618224531250000000e+05
2.618290937500000000e+05
2.618320000000000000e+05
2.618318281250000000e+05
2.618313906250000000e+05
2.618312031250000000e+05
2.618290468750000000e+05
2.618244843750000000e+05
2.618200156250000000e+05
2.618169062500000000e+05
2.618129687500000000e+05
2.618055781250000000e+05
2.617953281250000000e+05
2.617858750000000000e+05
2.617805000000000000e+05
2.617787500000000000e+05
2.617780625000000000e+05
2.617777812500000000e+05
2.617784062500000000e+05
2.617789218750000000e+05
2.617781875000000000e+05
2.617770937500000000e+05
2.617765625000000000e+05
2.617765625000000000e+05
2.617768593750000000e+05
2.617777656250000000e+05
2.617782500000000000e+05
2.617773281250000000e+05
2.617757343750000000e+05
2.617755000000000000e+05
2.617774531250000000e+05
2.617799531250000000e+05
2.617806875000000000e+05
2.617798437500000000e+05
2.617792812500000000e+05
2.617791718750000000e+05
2.617780781250000000e+05
2.617780625000000000e+05
2.617836250000000000e+05
2.617947968750000000e+05
2.618045156250000000e+05
2.618066406250000000e+05
2.618035000000000000e+05
2.618013437500000000e+05
2.618026875000000000e+05
2.618057031250000000e+05
2.618084531250000000e+05
2.618102656250000000e+05
2.618114531250000000e+05
2.618128750000000000e+05
2.618166718750000000e+05
2.618224218750000000e+05
2.618266718750000000e+05
2.618277968750000000e+05
2.618284375000000000e+05
2.618298906250000000e+05
2.618294218750000000e+05
2.618257656250000000e+05
2.618223593750000000e+05
2.618217031250000000e+05
2.618215625000000000e+05
2.618187343750000000e+05
2.618127343750000000e+05
2.618050000000000000e+05
2.617958281250000000e+05
2.617856718750000000e+05
2.617774531250000000e+05
2.617746406250000000e+05
2.617765781250000000e+05
2.617787187500000000e+05
2.617787968750000000e+05
2.617783437500000000e+05
2.617779531250000000e+05
2.617777500000000000e+05
2.617783281250000000e+05
2.617795937500000000e+05
2.617799843750000000e+05
2.617790156250000000e+05
2.617781562500000000e+05
2.617784687500000000e+05
2.617792968750000000e+05
2.617790312500000000e+05
2.617770781250000000e+05
2.617757656250000000e+05
2.617778593750000000e+05
2.617816406250000000e+05
2.617827656250000000e+05
2.617800625000000000e+05
2.617765781250000000e+05
2.617752031250000000e+05
2.617765312500000000e+05
2.617788281250000000e+05
2.617805781250000000e+05
2.617818437500000000e+05
2.617825937500000000e+05
2.617820625000000000e+05
2.617800625000000000e+05
2.617783125000000000e+05
2.617786875000000000e+05
2.617809218750000000e+05
2.617836562500000000e+05
2.617857656250000000e+05
2.617869218750000000e+05
2.617865468750000000e+05
2.617840156250000000e+05
2.617807812500000000e+05
2.617802343750000000e+05
2.617828125000000000e+05
2.617849531250000000e+05
2.617839531250000000e+05
2.617815156250000000e+05
2.617811093750000000e+05
2.617824531250000000e+05
2.617824843750000000e+05
2.617803437500000000e+05
2.617789218750000000e+05
2.617798125000000000e+05
2.617818593750000000e+05
2.617837187500000000e+05
2.617864531250000000e+05
2.617904531250000000e+05
2.617949062500000000e+05
2.617988437500000000e+05
2.618017031250000000e+05
2.618038906250000000e+05
2.618063906250000000e+05
2.618091875000000000e+05
2.618104531250000000e+05
2.618090625000000000e+05
2.618064843750000000e+05
2.618042187500000000e+05
2.618016406250000000e+05
2.617967812500000000e+05
2.617899531250000000e+05
2.617843906250000000e+05
2.617817812500000000e+05
2.617805625000000000e+05
2.617793593750000000e+05
2.617795468750000000e+05
2.617811718750000000e+05
2.617822812500000000e+05
2.617825781250000000e+05
2.617840625000000000e+05
2.617871406250000000e+05
2.617892187500000000e+05
2.617882968750000000e+05
2.617860000000000000e+05
2.617861406250000000e+05
2.617886093750000000e+05
2.617874218750000000e+05
2.617780625000000000e+05
2.617668750000000000e+05
2.617682656250000000e+05
2.617915625000000000e+05
2.618346406250000000e+05
2.618891250000000000e+05
2.619425156250000000e+05
2.619750000000000000e+05
2.619693750000000000e+05
2.619277187500000000e+05
2.618701875000000000e+05
2.618184531250000000e+05
2.617864062500000000e+05
2.617780156250000000e+05
2.617858750000000000e+05
2.617969218750000000e+05
2.618033593750000000e+05
2.618049062500000000e+05
2.618034687500000000e+05
2.618010625000000000e+05
2.617992343750000000e+05
2.617978750000000000e+05
2.617968437500000000e+05
2.617964218750000000e+05
2.617964843750000000e+05
2.617965156250000000e+05
2.617967187500000000e+05
2.617971562500000000e+05
2.617974375000000000e+05
2.617982031250000000e+05
2.618001250000000000e+05
2.618023125000000000e+05
2.618033437500000000e+05
2.618024531250000000e+05
2.618002031250000000e+05
2.617988281250000000e+05
2.618003125000000000e+05
2.618034218750000000e+05
2.618056093750000000e+05
2.618070781250000000e+05
2.618090468750000000e+05
2.618112812500000000e+05
2.618125468750000000e+05
2.618128906250000000e+05
2.618128750000000000e+05
2.618124062500000000e+05
2.618116406250000000e+05
2.618119687500000000e+05
2.618147187500000000e+05
2.618193125000000000e+05
2.618232656250000000e+05
2.618257187500000000e+05
2.618273906250000000e+05
2.618287031250000000e+05
2.618292812500000000e+05
2.618283750000000000e+05
2.618258125000000000e+05
2.618225781250000000e+05
2.618203125000000000e+05
2.618189218750000000e+05
2.618158906250000000e+05
2.618093750000000000e+05
2.618002187500000000e+05
2.617912031250000000e+05
2.617839687500000000e+05
2.617782500000000000e+05
2.617737500000000000e+05
2.617715937500000000e+05
2.617729843750000000e+05
2.617768750000000000e+05
2.617798750000000000e+05
2.617800625000000000e+05
2.617779062500000000e+05
2.617763125000000000e+05
2.617774062500000000e+05
2.617795937500000000e+05
2.617795781250000000e+05
2.617773125000000000e+05
2.617758750000000000e+05
2.617764687500000000e+05
2.617772031250000000e+05
2.617768906250000000e+05
2.617772031250000000e+05
2.617797656250000000e+05
2.617831093750000000e+05
2.617842187500000000e+05
2.617821406250000000e+05
2.617795000000000000e+05
2.617788750000000000e+05
2.617799375000000000e+05
2.617808281250000000e+05
2.617805000000000000e+05
2.617799531250000000e+05
2.617802812500000000e+05
2.617809375000000000e+05
2.617805000000000000e+05
2.617795468750000000e+05
2.617799375000000000e+05
2.617816406250000000e+05
2.617832187500000000e+05
2.617844843750000000e+05
2.617860156250000000e+05
2.617874531250000000e+05
2.617873593750000000e+05
2.617853593750000000e+05
2.617837968750000000e+05
2.617852187500000000e+05
2.617876250000000000e+05
2.617870781250000000e+05
2.617834687500000000e+05
2.617809843750000000e+05
2.617821250000000000e+05
2.617854375000000000e+05
2.617872343750000000e+05
2.617856718750000000e+05
2.617829218750000000e+05
2.617833281250000000e+05
2.617877343750000000e+05
2.617936562500000000e+05
2.617988593750000000e+05
2.618030625000000000e+05
2.618066093750000000e+05
2.618087343750000000e+05
2.618081562500000000e+05
2.618059218750000000e+05
2.618052812500000000e+05
2.618069062500000000e+05
2.618075000000000000e+05
2.618047343750000000e+05
2.618003437500000000e+05
2.617961875000000000e+05
2.617924843750000000e+05
2.617893593750000000e+05
2.617872812500000000e+05
2.617860625000000000e+05
2.617846875000000000e+05
2.617828750000000000e+05
2.617813437500000000e+05
2.617810000000000000e+05
2.617820312500000000e+05
2.617841250000000000e+05
2.617860781250000000e+05
2.617869531250000000e+05
2.617871718750000000e+05
2.617872187500000000e+05
2.617865468750000000e+05
2.617857968750000000e+05
2.617871875000000000e+05
2.617886250000000000e+05
2.617841093750000000e+05
2.617751250000000000e+05
2.617749843750000000e+05
2.617962031250000000e+05
2.618391718750000000e+05
2.618942500000000000e+05
2.619450312500000000e+05
2.619716250000000000e+05
2.619624375000000000e+05
2.619221562500000000e+05
2.618660156250000000e+05
2.618123437500000000e+05
2.617799062500000000e+05
2.617760156250000000e+05
2.617884687500000000e+05
2.617976250000000000e+05
2.617970625000000000e+05
2.617932656250000000e+05
2.617931875000000000e+05
2.617978750000000000e+05
2.618037031250000000e+05
2.618056718750000000e+05
2.618021406250000000e+05
2.617966875000000000e+05
2.617936250000000000e+05
2.617940625000000000e+05
2.617966093750000000e+05
2.617989375000000000e+05
2.617986406250000000e+05
2.617966718750000000e+05
2.617967968750000000e+05
2.618002812500000000e+05
2.618040468750000000e+05
2.618048125000000000e+05
2.618033437500000000e+05
2.618017187500000000e+05
2.618012187500000000e+05
2.618018750000000000e+05
2.618032187500000000e+05
2.618042968750000000e+05
2.618047812500000000e+05
2.618058593750000000e+05
2.618086562500000000e+05
2.618125937500000000e+05
2.618152812500000000e+05
2.618153125000000000e+05
2.618145312500000000e+05
2.618156875000000000e+05
2.618188906250000000e+05
2.618221718750000000e+05
2.618249687500000000e+05
2.618284218750000000e+05
2.618319531250000000e+05
2.618327500000000000e+05
2.618296718750000000e+05
2.618247968750000000e+05
2.618211093750000000e+05
2.618197343750000000e+05
2.618193750000000000e+05
2.618165625000000000e+05
2.618090312500000000e+05
2.617994687500000000e+05
2.617924531250000000e+05
2.617888437500000000e+05
2.617852500000000000e+05
2.617802031250000000e+05
2.617758437500000000e+05
2.617745625000000000e+05
2.617761093750000000e+05
2.617783906250000000e+05
2.617792656250000000e+05
2.617787343750000000e+05
2.617776562500000000e+05
2.617765625000000000e+05
2.617760156250000000e+05
2.617772500000000000e+05
2.617798281250000000e+05
2.617812031250000000e+05
2.617797812500000000e+05
2.617773906250000000e+05
2.617772187500000000e+05
2.617795156250000000e+05
2.617822500000000000e+05
2.617843281250000000e+05
2.617862968750000000e+05
2.617870937500000000e+05
2.617850312500000000e+05
2.617814062500000000e+05
2.617788437500000000e+05
2.617780937500000000e+05
2.617790312500000000e+05
2.617820312500000000e+05
2.617858125000000000e+05
2.617860000000000000e+05
2.617817031250000000e+05
2.617783750000000000e+05
2.617804375000000000e+05
2.617849843750000000e+05
2.617853906250000000e+05
2.617814375000000000e+05
2.617787656250000000e+05
2.617810468750000000e+05
2.617851406250000000e+05
2.617861562500000000e+05
2.617834843750000000e+05
2.617804531250000000e+05
2.617796250000000000e+05
2.617808125000000000e+05
2.617824218750000000e+05
2.617834531250000000e+05
2.617836875000000000e+05
2.617835625000000000e+05
2.617835156250000000e+05
2.617833750000000000e+05
2.617827968750000000e+05
2.617830312500000000e+05
2.617862343750000000e+05
2.617915625000000000e+05
2.617964687500000000e+05
2.618000468750000000e+05
2.618028281250000000e+05
2.618050156250000000e+05
2.618066875000000000e+05
2.618081093750000000e+05
2.618084218750000000e+05
2.618071250000000000e+05
2.618044687500000000e+05
2.618012968750000000e+05
2.617980781250000000e+05
2.617946718750000000e+05
2.617909843750000000e+05
2.617874375000000000e+05
2.617852031250000000e+05
2.617841093750000000e+05
2.617830468750000000e+05
2.617834843750000000e+05
2.617867343750000000e+05
2.617901250000000000e+05
2.617896718750000000e+05
2.617860468750000000e+05
2.617832500000000000e+05
2.617825000000000000e+05
2.617821250000000000e+05
2.617818125000000000e+05
2.617842187500000000e+05
2.617890468750000000e+05
2.617897812500000000e+05
2.617806093750000000e+05
2.617682187500000000e+05
2.617701406250000000e+05
2.617979062500000000e+05
2.618465625000000000e+05
2.619025937500000000e+05
2.619512500000000000e+05
2.619753906250000000e+05
2.619623593750000000e+05
2.619165000000000000e+05
2.618573906250000000e+05
2.618059843750000000e+05
2.617776406250000000e+05
2.617761562500000000e+05
2.617904843750000000e+05
2.618027968750000000e+05
2.618052812500000000e+05
2.618024375000000000e+05
2.618006406250000000e+05
2.618014843750000000e+05
2.618028437500000000e+05
2.618023593750000000e+05
2.618004062500000000e+05
2.618000937500000000e+05
2.618024531250000000e+05
2.618042031250000000e+05
2.618022187500000000e+05
2.617978281250000000e+05
2.617948906250000000e+05
2.617950781250000000e+05
2.617972968750000000e+05
2.617995468750000000e+05
2.618007031250000000e+05
2.618009218750000000e+05
2.618007656250000000e+05
2.618005781250000000e+05
2.618010625000000000e+05
2.618030156250000000e+05
2.618046875000000000e+05
2.618037968750000000e+05
2.618023906250000000e+05
2.618042187500000000e+05
2.618090000000000000e+05
2.618129218750000000e+05
2.618138437500000000e+05
2.618132656250000000e+05
2.618136093750000000e+05
2.618166875000000000e+05
2.618214531250000000e+05
2.618249531250000000e+05
2.618262968750000000e+05
2.618270156250000000e+05
2.618278593750000000e+05
2.618277187500000000e+05
2.618260156250000000e+05
2.618241562500000000e+05
2.618234218750000000e+05
2.618231406250000000e+05
2.618213125000000000e+05
2.618168906250000000e+05
2.618101562500000000e+05
2.618023125000000000e+05
2.617938750000000000e+05
2.617864375000000000e+05
2.617809843750000000e+05
2.617772500000000000e+05
2.617750000000000000e+05
2.617745156250000000e+05
2.617752500000000000e+05
2.617761250000000000e+05
2.617768593750000000e+05
2.617779843750000000e+05
2.617788437500000000e+05
2.617787343750000000e+05
2.617780000000000000e+05
2.617773906250000000e+05
2.617774062500000000e+05
2.617781718750000000e+05
2.617789687500000000e+05
2.617790312500000000e+05
2.617783281250000000e+05
2.617780156250000000e+05
2.617798125000000000e+05
2.617829375000000000e+05
2.617837343750000000e+05
2.617806875000000000e+05
2.617772656250000000e+05
2.617774218750000000e+05
2.617808906250000000e+05
2.617845625000000000e+05
2.617864062500000000e+05
2.617861250000000000e+05
2.617845468750000000e+05
2.617826875000000000e+05
2.617816562500000000e+05
2.617824531250000000e+05
2.617843593750000000e+05
2.617845156250000000e+05
2.617820781250000000e+05
2.617801406250000000e+05
2.617815312500000000e+05
2.617849687500000000e+05
2.617862500000000000e+05
2.617847031250000000e+05
2.617833437500000000e+05
2.617837812500000000e+05
2.617846562500000000e+05
2.617849531250000000e+05
2.617849843750000000e+05
2.617846718750000000e+05
2.617838906250000000e+05
2.617837968750000000e+05
2.617846406250000000e+05
2.617848125000000000e+05
2.617844062500000000e+05
2.617854062500000000e+05
2.617884218750000000e+05
2.617925625000000000e+05
2.617970781250000000e+05
2.618014375000000000e+05
2.618046875000000000e+05
2.618058906250000000e+05
2.618050781250000000e+05
2.618039375000000000e+05
2.618047812500000000e+05
2.618071875000000000e+05
2.618085937500000000e+05
2.618074531250000000e+05
2.618035312500000000e+05
2.617972187500000000e+05
2.617900625000000000e+05
2.617845781250000000e+05
2.617820468750000000e+05
2.617821718750000000e+05
2.617835156250000000e+05
2.617850156250000000e+05
2.617856406250000000e+05
2.617849218750000000e+05
2.617834531250000000e+05
2.617823125000000000e+05
2.617822812500000000e+05
2.617826562500000000e+05
2.617829218750000000e+05
2.617827031250000000e+05
2.617820312500000000e+05
2.617828750000000000e+05
2.617862500000000000e+05
2.617873750000000000e+05
2.617798593750000000e+05
2.617687343750000000e+05
2.617713281250000000e+05
2.617999531250000000e+05
2.618501250000000000e+05
2.619067656250000000e+05
2.619526718750000000e+05
2.619717187500000000e+05
2.619561250000000000e+05
2.619122968750000000e+05
2.618562968750000000e+05
2.618063125000000000e+05
2.617771562500000000e+05
2.617737656250000000e+05
2.617860156250000000e+05
2.617980937500000000e+05
2.618022187500000000e+05
2.618002031250000000e+05
2.617970468750000000e+05
2.617960312500000000e+05
2.617974687500000000e+05
2.617986406250000000e+05
2.617976562500000000e+05
2.617970312500000000e+05
2.617989218750000000e+05
2.618007343750000000e+05
2.617996875000000000e+05
2.617975156250000000e+05
2.617969375000000000e+05
2.617973281250000000e+05
2.617974531250000000e+05
2.617974843750000000e+05
2.617979375000000000e+05
2.617990468750000000e+05
2.618010156250000000e+05
2.618026718750000000e+05
2.618020312500000000e+05
2.618003125000000000e+05
2.618012031250000000e+05
2.618057500000000000e+05
2.618099062500000000e+05
2.618097031250000000e+05
2.618069218750000000e+05
2.618067031250000000e+05
2.618107500000000000e+05
2.618150625000000000e+05
2.618158593750000000e+05
2.618137968750000000e+05
2.618135937500000000e+05
2.618184687500000000e+05
2.618257500000000000e+05
2.618298750000000000e+05
2.618301875000000000e+05
2.618300000000000000e+05
2.618301562500000000e+05
2.618290781250000000e+05
2.618268125000000000e+05
2.618243593750000000e+05
2.618216406250000000e+05
2.618190312500000000e+05
2.618165000000000000e+05
2.618111718750000000e+05
2.618015156250000000e+05
2.617906562500000000e+05
2.617835937500000000e+05
2.617815625000000000e+05
2.617811406250000000e+05
2.617795000000000000e+05
2.617772187500000000e+05
2.617766562500000000e+05
2.617772343750000000e+05
2.617779375000000000e+05
2.617788437500000000e+05
2.617798593750000000e+05
2.617794531250000000e+05
2.617777812500000000e+05
2.617767968750000000e+05
2.617771250000000000e+05
2.617776718750000000e+05
2.617783125000000000e+05
2.617793281250000000e+05
2.617799375000000000e+05
2.617794375000000000e+05
2.617788437500000000e+05
2.617788437500000000e+05
2.617790312500000000e+05
2.617791250000000000e+05
2.617806250000000000e+05
2.617832343750000000e+05
2.617839218750000000e+05
2.617807500000000000e+05
2.617769843750000000e+05
2.617777031250000000e+05
2.617825312500000000e+05
2.617857343750000000e+05
2.617843437500000000e+05
2.617827343750000000e+05
2.617848125000000000e+05
2.617880625000000000e+05
2.617879062500000000e+05
2.617848593750000000e+05
2.617826718750000000e+05
2.617825937500000000e+05
2.617833906250000000e+05
2.617840468750000000e+05
2.617842812500000000e+05
2.617842656250000000e+05
2.617850000000000000e+05
2.617864062500000000e+05
2.617862500000000000e+05
2.617842187500000000e+05
2.617829843750000000e+05
2.617838750000000000e+05
2.617849687500000000e+05
2.617848750000000000e+05
2.617844843750000000e+05
2.617849218750000000e+05
2.617866406250000000e+05
2.617898750000000000e+05
2.617940625000000000e+05
2.617981718750000000e+05
2.618015781250000000e+05
2.618046562500000000e+05
2.618073593750000000e+05
2.618086875000000000e+05
2.618085468750000000e+05
2.618079531250000000e+05
2.618068437500000000e+05
2.618046406250000000e+05
2.618014375000000000e+05
2.617975000000000000e+05
2.617919218750000000e+05
2.617857343750000000e+05
2.617822343750000000e+05
2.617825625000000000e+05
2.617843281250000000e+05
2.617856406250000000e+05
2.617871562500000000e+05
2.617894375000000000e+05
2.617911718750000000e+05
2.617901406250000000e+05
2.617865937500000000e+05
2.617837343750000000e+05
2.617838750000000000e+05
2.617856875000000000e+05
2.617872656250000000e+05
2.617890468750000000e+05
2.617915312500000000e+05
2.617905156250000000e+05
2.617818906250000000e+05
2.617719218750000000e+05
2.617763125000000000e+05
2.618053437500000000e+05
2.618546562500000000e+05
2.619107500000000000e+05
2.619565468750000000e+05
2.619748593750000000e+05
2.619565000000000000e+05
2.619087812500000000e+05
2.618507968750000000e+05
2.618032500000000000e+05
2.617801406250000000e+05
2.617811875000000000e+05
2.617928437500000000e+05
2.618013125000000000e+05
2.618034687500000000e+05
2.618020000000000000e+05
2.617987031250000000e+05
2.617955468750000000e+05
2.617948906250000000e+05
2.617964687500000000e+05
2.617978281250000000e+05
2.617981406250000000e+05
2.617986093750000000e+05
2.617997343750000000e+05
2.618003750000000000e+05
2.617998437500000000e+05
2.617993125000000000e+05
2.618000625000000000e+05
2.618011093750000000e+05
2.618014843750000000e+05
2.618021250000000000e+05
2.618043281250000000e+05
2.618070625000000000e+05
2.618080000000000000e+05
2.618060781250000000e+05
2.618032031250000000e+05
2.618019687500000000e+05
2.618029062500000000e+05
2.618042500000000000e+05
2.618049843750000000e+05
2.618058906250000000e+05
2.618080781250000000e+05
2.618115000000000000e+05
2.618146718750000000e+05
2.618165156250000000e+05
2.618175468750000000e+05
2.618186093750000000e+05
2.618202031250000000e+05
2.618227500000000000e+05
2.618262656250000000e+05
2.618293906250000000e+05
2.618309843750000000e+05
2.618314062500000000e+05
2.618302500000000000e+05
2.618264062500000000e+05
2.618213906250000000e+05
2.618184687500000000e+05
2.618178750000000000e+05
2.618159218750000000e+05
2.618097500000000000e+05
2.618000937500000000e+05
2.617906250000000000e+05
2.617844375000000000e+05
2.617811562500000000e+05
2.617782500000000000e+05
2.617755468750000000e+05
2.617746718750000000e+05
2.617756406250000000e+05
2.617764843750000000e+05
2.617762343750000000e+05
2.617757812500000000e+05
2.617763593750000000e+05
2.617783750000000000e+05
2.617806406250000000e+05
2.617812968750000000e+05
2.617806875000000000e+05
2.617807656250000000e+05
2.617820781250000000e+05
2.617833750000000000e+05
2.617834375000000000e+05
2.617825000000000000e+05
2.617820156250000000e+05
2.617827187500000000e+05
2.617831406250000000e+05
2.617817187500000000e+05
2.617787812500000000e+05
2.617767343750000000e+05
2.617768750000000000e+05
2.617780781250000000e+05
2.617793125000000000e+05
2.617810312500000000e+05
2.617834218750000000e+05
2.617846875000000000e+05
2.617835000000000000e+05
2.617811093750000000e+05
2.617794531250000000e+05
2.617786875000000000e+05
2.617792343750000000e+05
2.617808593750000000e+05
2.617821562500000000e+05
2.617815781250000000e+05
2.617804687500000000e+05
2.617808906250000000e+05
2.617822031250000000e+05
2.617820156250000000e+05
2.617803281250000000e+05
2.617796250000000000e+05
2.617812656250000000e+05
2.617832812500000000e+05
2.617838906250000000e+05
2.617845937500000000e+05
2.617870781250000000e+05
2.617894218750000000e+05
2.617882031250000000e+05
2.617853750000000000e+05
2.617865937500000000e+05
2.617936875000000000e+05
2.618010468750000000e+05
2.618039843750000000e+05
2.618040000000000000e+05
2.618048593750000000e+05
2.618063906250000000e+05
2.618071718750000000e+05
2.618071875000000000e+05
2.618070625000000000e+05
2.618068750000000000e+05
2.618060937500000000e+05
2.618033281250000000e+05
2.617977968750000000e+05
2.617911250000000000e+05
2.617861875000000000e+05
2.617844843750000000e+05
2.617852500000000000e+05
2.617861718750000000e+05
2.617853750000000000e+05
2.617839375000000000e+05
2.617836406250000000e+05
2.617837343750000000e+05
2.617826406250000000e+05
2.617822500000000000e+05
2.617852968750000000e+05
2.617896562500000000e+05
2.617899843750000000e+05
2.617868593750000000e+05
2.617854687500000000e+05
2.617848281250000000e+05
2.617785625000000000e+05
2.617697343750000000e+05
2.617745156250000000e+05
2.618041875000000000e+05
2.618543906250000000e+05
2.619107656250000000e+05
2.619557031250000000e+05
2.619717031250000000e+05
2.619506718750000000e+05
2.619003906250000000e+05
2.618403125000000000e+05
2.617926250000000000e+05
2.617724687500000000e+05
2.617784375000000000e+05
2.617938750000000000e+05
2.618027812500000000e+05
2.618024375000000000e+05
2.617993125000000000e+05
2.617977500000000000e+05
2.617972187500000000e+05
2.617961093750000000e+05
2.617948125000000000e+05
2.617948437500000000e+05
2.617958906250000000e+05
2.617967812500000000e+05
2.617974531250000000e+05
2.617984218750000000e+05
2.617993125000000000e+05
2.617988281250000000e+05
2.617979375000000000e+05
2.617987656250000000e+05
2.618010312500000000e+05
2.618028437500000000e+05
2.618030000000000000e+05
2.618021406250000000e+05
2.618020312500000000e+05
2.618042968750000000e+05
2.618081406250000000e+05
2.618102343750000000e+05
2.618095000000000000e+05
2.618080937500000000e+05
2.618082187500000000e+05
2.618090625000000000e+05
2.618098906250000000e+05
2.618108281250000000e+05
2.618122812500000000e+05
2.618135781250000000e+05
2.618143750000000000e+05
2.618162968750000000e+05
2.618211406250000000e+05
2.618272812500000000e+05
2.618309375000000000e+05
2.618309687500000000e+05
2.618299218750000000e+05
2.618300468750000000e+05
2.618310156250000000e+05
2.618305312500000000e+05
2.618270781250000000e+05
2.618222343750000000e+05
2.618181250000000000e+05
2.618139531250000000e+05
2.618068593750000000e+05
2.617971562500000000e+05
2.617887812500000000e+05
2.617841250000000000e+05
2.617814375000000000e+05
2.617783125000000000e+05
2.617748437500000000e+05
2.617730937500000000e+05
