3.254867060565870829e-01 3.254867060565870829e-01 3.111382019093623108e-01 3.111382019093623108e-01 3.111382019093623108e-01
3.181323805816397843e-01 3.181323805816397843e-01 2.934070865710224352e-01 2.934070865710224352e-01 2.934070865710224352e-01
2.955543686730688346e-01 2.955543686730688346e-01 2.614981883422949349e-01 2.614981883422949349e-01 2.614981883422949349e-01
2.589502113799200256e-01 2.589502113799200256e-01 2.197315665865051115e-01 2.197315665865051115e-01 2.197315665865051115e-01
2.128428386735825018e-01 2.128428386735825018e-01 1.748990245831508750e-01 1.748990245831508750e-01 1.748990245831508750e-01
1.648385857009266597e-01 1.648385857009266597e-01 1.342346036248952823e-01 1.342346036248952823e-01 1.342346036248952823e-01
1.234344858402375011e-01 1.234344858402375011e-01 1.029208691414880278e-01 1.029208691414880278e-01 1.029208691414880278e-01
9.480551871475066672e-02 9.480551871475066672e-02 8.284439886980601853e-02 8.284439886980601853e-02 8.284439886980601853e-02
8.026966025110610081e-02 8.026966025110610081e-02 7.263700738536248147e-02 7.263700738536248147e-02 7.263700738536248147e-02
7.640509935877401460e-02 7.640509935877401460e-02 6.916920966895466483e-02 6.916920966895466483e-02 6.916920966895466483e-02
7.765252247942364128e-02 7.765252247942364128e-02 6.908959942098047424e-02 6.908959942098047424e-02 6.908959942098047424e-02
7.937240184650308505e-02 7.937240184650308505e-02 7.026980591885531591e-02 7.026980591885531591e-02 7.026980591885531591e-02
7.978556898053051905e-02 7.978556898053051905e-02 7.191533123047080811e-02 7.191533123047080811e-02 7.191533123047080811e-02
7.921594790479827286e-02 7.921594790479827286e-02 7.388978880697193163e-02 7.388978880697193163e-02 7.388978880697193163e-02
7.857738312215971355e-02 7.857738312215971355e-02 7.605457041816486574e-02 7.605457041816486574e-02 7.605457041816486574e-02
7.826868365173897391e-02 7.826868365173897391e-02 7.819158101262260741e-02 7.819158101262260741e-02 7.819158101262260741e-02
7.811631434617043179e-02 7.811631434617043179e-02 7.981414895040367385e-02 7.981414895040367385e-02 7.981414895040367385e-02
7.792421267091262371e-02 7.792421267091262371e-02 8.050287016543626606e-02 8.050287016543626606e-02 8.050287016543626606e-02
7.815691315382801430e-02 7.815691315382801430e-02 8.041005325617023303e-02 8.041005325617023303e-02 8.041005325617023303e-02
7.952365716039809518e-02 7.952365716039809518e-02 8.009161226427344293e-02 8.009161226427344293e-02 8.009161226427344293e-02
8.217198669893942264e-02 8.217198669893942264e-02 7.956544406719746887e-02 7.956544406719746887e-02 7.956544406719746887e-02
8.453253505515187505e-02 8.453253505515187505e-02 7.683536798201721918e-02 7.683536798201721918e-02 7.683536798201721918e-02
8.260656722846916600e-02 8.260656722846916600e-02 6.747937415730392852e-02 6.747937415730392852e-02 6.747937415730392852e-02
7.083798785872852388e-02 7.083798785872852388e-02 4.733859855353733659e-02 4.733859855353733659e-02 4.733859855353733659e-02
4.650519151064078788e-02 4.650519151064078788e-02 1.916792603084779834e-02 1.916792603084779834e-02 1.916792603084779834e-02
1.774118383895146103e-02 1.774118383895146103e-02 0.000000000000000000e+00 0.000000000000000000e+00 0.000000000000000000e+00
8.670939856208429580e-03 8.670939856208429580e-03 2.131209537628616854e-02 2.131209537628616854e-02 2.131209537628616854e-02
5.463844471909153067e-02 5.463844471909153067e-02 1.174323979396620921e-01 1.174323979396620921e-01 1.174323979396620921e-01
1.853120197844921324e-01 1.853120197844921324e-01 3.033334353661059080e-01 3.033334353661059080e-01 3.033334353661059080e-01
4.011943228508779713e-01 4.011943228508779713e-01 5.544556312956895328e-01 5.544556312956895328e-01 5.544556312956895328e-01
6.596646513732113970e-01 6.596646513732113970e-01 8.053194950562653220e-01 8.053194950562653220e-01 8.053194950562653220e-01
8.849273832149923136e-01 8.849273832149923136e-01 9.738979596572291397e-01 9.738979596572291397e-01 9.738979596572291397e-01
1.000000000000000000e+00 1.000000000000000000e+00 1.000000000000000000e+00 1.000000000000000000e+00 1.000000000000000000e+00
9.640497558192140382e-01 9.640497558192140382e-01 8.753246740423196171e-01 8.753246740423196171e-01 8.753246740423196171e-01
7.922356018123406507e-01 7.922356018123406507e-01 6.469716261670614976e-01 6.469716261670614976e-01 6.469716261670614976e-01
5.467271852958049960e-01 5.467271852958049960e-01 3.925059232493027794e-01 3.925059232493027794e-01 3.925059232493027794e-01
3.050032460479598084e-01 3.050032460479598084e-01 1.826803400456086524e-01 1.826803400456086524e-01 1.826803400456086524e-01
1.254116972839026400e-01 1.254116972839026400e-01 5.379085486841968938e-02 5.379085486841968938e-02 5.379085486841968938e-02
2.832497117546544860e-02 2.832497117546544860e-02 2.892505676395820506e-03 2.892505676395820506e-03 2.892505676395820506e-03
0.000000000000000000e+00 0.000000000000000000e+00 2.576039512355757233e-03 2.576039512355757233e-03 2.576039512355757233e-03
1.077811699511885962e-02 1.077811699511885962e-02 2.186578773661523520e-02 2.186578773661523520e-02 2.186578773661523520e-02
3.321143376298341804e-02 3.321143376298341804e-02 4.000384104018132880e-02 4.000384104018132880e-02 4.000384104018132880e-02
5.177536234126392523e-02 5.177536234126392523e-02 4.997647486315677512e-02 4.997647486315677512e-02 4.997647486315677512e-02
6.289411323477807347e-02 6.289411323477807347e-02 5.371001035303504118e-02 5.371001035303504118e-02 5.371001035303504118e-02
6.864119627852514893e-02 6.864119627852514893e-02 5.518866271075733437e-02 5.518866271075733437e-02 5.518866271075733437e-02
7.152779625834952693e-02 7.152779625834952693e-02 5.683134920732878237e-02 5.683134920732878237e-02 5.683134920732878237e-02
7.265503205511041063e-02 7.265503205511041063e-02 5.920706711896807362e-02 5.920706711896807362e-02 5.920706711896807362e-02
7.200260426497900879e-02 7.200260426497900879e-02 6.160018820109474519e-02 6.160018820109474519e-02 6.160018820109474519e-02
6.955169880635792001e-02 6.955169880635792001e-02 6.299725548298611144e-02 6.299725548298611144e-02 6.299725548298611144e-02
6.590746071167977171e-02 6.590746071167977171e-02 6.279162653240470682e-02 6.279162653240470682e-02 6.279162653240470682e-02
6.219514534806360601e-02 6.219514534806360601e-02 6.110043332660246296e-02 6.110043332660246296e-02 6.110043332660246296e-02
5.968915919002903275e-02 5.968915919002903275e-02 5.879852460610823783e-02 5.879852460610823783e-02 5.879852460610823783e-02
5.920568680371652431e-02 5.920568680371652431e-02 5.700562776568469936e-02 5.700562776568469936e-02 5.700562776568469936e-02
6.074559462709438334e-02 6.074559462709438334e-02 5.666114373142736027e-02 5.666114373142736027e-02 5.666114373142736027e-02
6.359060558444025457e-02 6.359060558444025457e-02 5.800291583333045536e-02 5.800291583333045536e-02 5.800291583333045536e-02
6.673342364917679570e-02 6.673342364917679570e-02 6.071176251905091581e-02 6.071176251905091581e-02 6.071176251905091581e-02
6.934078304950269667e-02 6.934078304950269667e-02 6.404453138075520691e-02 6.404453138075520691e-02 6.404453138075520691e-02
7.102439579876607123e-02 7.102439579876607123e-02 6.718401396598260022e-02 6.718401396598260022e-02 6.718401396598260022e-02
7.159277910597217076e-02 7.159277910597217076e-02 6.949048947589549219e-02 6.949048947589549219e-02 6.949048947589549219e-02
7.113567118926657218e-02 7.113567118926657218e-02 7.051320345219658225e-02 7.051320345219658225e-02 7.051320345219658225e-02
7.022306445493935179e-02 7.022306445493935179e-02 7.048888838421066283e-02 7.048888838421066283e-02 7.048888838421066283e-02
6.974243893623696677e-02 6.974243893623696677e-02 7.029387413335913548e-02 7.029387413335913548e-02 7.029387413335913548e-02
7.071161169220904763e-02 7.071161169220904763e-02 7.114490151286624597e-02 7.114490151286624597e-02 7.114490151286624597e-02
7.410210723902733998e-02 7.410210723902733998e-02 7.445471300073611132e-02 7.445471300073611132e-02 7.445471300073611132e-02
8.122113291715429839e-02 8.122113291715429839e-02 8.216505808709287373e-02 8.216505808709287373e-02 8.216505808709287373e-02
9.373361117110849683e-02 9.373361117110849683e-02 9.665943056826165058e-02 9.665943056826165058e-02 9.665943056826165058e-02
1.133890040357442841e-01 1.133890040357442841e-01 1.200264577562104584e-01 1.200264577562104584e-01 1.200264577562104584e-01
1.411344519872683168e-01 1.411344519872683168e-01 1.528021819872988907e-01 1.528021819872988907e-01 1.528021819872988907e-01
1.763963730906646932e-01 1.763963730906646932e-01 1.936223674927536054e-01 1.936223674927536054e-01 1.936223674927536054e-01
2.170503852245095622e-01 2.170503852245095622e-01 2.393253148739590830e-01 2.393253148739590830e-01 2.393253148739590830e-01
2.602603893648452460e-01 2.602603893648452460e-01 2.862377208906671244e-01 2.862377208906671244e-01 2.862377208906671244e-01
3.036334076200744025e-01 3.036334076200744025e-01 3.314258553349727632e-01 3.314258553349727632e-01 3.314258553349727632e-01
3.456942674607364485e-01 3.456942674607364485e-01 3.733473776507744146e-01 3.733473776507744146e-01 3.733473776507744146e-01
3.853833152515981353e-01 3.853833152515981353e-01 4.111273156708021292e-01 4.111273156708021292e-01 4.111273156708021292e-01
4.216108195822407256e-01 4.216108195822407256e-01 4.442792446085965241e-01 4.442792446085965241e-01 4.442792446085965241e-01
4.534061223744608737e-01 4.534061223744608737e-01 4.730050906125076726e-01 4.730050906125076726e-01 4.730050906125076726e-01
4.806654986257675177e-01 4.806654986257675177e-01 4.979602496774859222e-01 4.979602496774859222e-01 4.979602496774859222e-01
5.040949715034741541e-01 5.040949715034741541e-01 5.197122379588574592e-01 5.197122379588574592e-01 5.197122379588574592e-01
5.246285611374102986e-01 5.246285611374102986e-01 5.380186453372092226e-01 5.380186453372092226e-01 5.380186453372092226e-01
5.425504591811789457e-01 5.425504591811789457e-01 5.519273579321182233e-01 5.519273579321182233e-01 5.519273579321182233e-01
5.568479234266878741e-01 5.568479234266878741e-01 5.603537015432785706e-01 5.603537015432785706e-01 5.603537015432785706e-01
5.655001729781515829e-01 5.655001729781515829e-01 5.626119171974427458e-01 5.626119171974427458e-01 5.626119171974427458e-01
5.664718212711759016e-01 5.664718212711759016e-01 5.581507810691026528e-01 5.581507810691026528e-01 5.581507810691026528e-01
5.586154568820239641e-01 5.586154568820239641e-01 5.462087501660090050e-01 5.462087501660090050e-01 5.462087501660090050e-01
5.416666924535109562e-01 5.416666924535109562e-01 5.255283528503924551e-01 5.255283528503924551e-01 5.255283528503924551e-01
5.156435994061187023e-01 5.156435994061187023e-01 4.951172381242492371e-01 4.951172381242492371e-01 4.951172381242492371e-01
4.807828390820461095e-01 4.807828390820461095e-01 4.552067077002981410e-01 4.552067077002981410e-01 4.552067077002981410e-01
4.376802732497798165e-01 4.376802732497798165e-01 4.075736129426267840e-01 4.075736129426267840e-01 4.075736129426267840e-01
3.875843152447903672e-01 3.875843152447903672e-01 3.547232698409720775e-01 3.547232698409720775e-01 3.547232698409720775e-01
3.324871535099092612e-01 3.324871535099092612e-01 2.991502562585997560e-01 2.991502562585997560e-01 2.991502562585997560e-01
2.749966425528728164e-01 2.749966425528728164e-01 2.429666505882765448e-01 2.429666505882765448e-01 2.429666505882765448e-01
2.181184556857206636e-01 2.181184556857206636e-01 1.884020334802440633e-01 1.884020334802440633e-01 1.884020334802440633e-01
1.649405778274810608e-01 1.649405778274810608e-01 1.383895180087020838e-01 1.383895180087020838e-01 1.383895180087020838e-01
1.183853804683839828e-01 1.183853804683839828e-01 9.627915277910119307e-02 9.627915277910119307e-02 9.627915277910119307e-02
8.091763207454337470e-02 8.091763207454337470e-02 6.475583968939907509e-02 6.475583968939907509e-02 6.475583968939907509e-02
5.409246502220866476e-02 5.409246502220866476e-02 4.476317617488680817e-02 4.476317617488680817e-02 4.476317617488680817e-02
3.780999139131990122e-02 3.780999139131990122e-02 3.510713194269247245e-02 3.510713194269247245e-02 3.510713194269247245e-02
3.060593101544673358e-02 3.060593101544673358e-02 3.281361624058933002e-02 3.281361624058933002e-02 3.281361624058933002e-02
3.000586083397130052e-02 3.000586083397130052e-02 3.427782766960932315e-02 3.427782766960932315e-02 3.427782766960932315e-02
3.328211034582633648e-02 3.328211034582633648e-02 3.667971205035021331e-02 3.667971205035021331e-02 3.667971205035021331e-02
