3.123491395659067638e-01 3.123491395659067638e-01 3.107747141215935205e-01 3.151766648759820044e-01 3.151766648759820044e-01
2.995806836971128817e-01 2.995806836971128817e-01 3.021521273059633583e-01 3.015248692208518100e-01 3.015248692208518100e-01
2.733255255021896923e-01 2.733255255021896923e-01 2.796513606462530110e-01 2.731810068018392657e-01 2.731810068018392657e-01
2.369258607578776654e-01 2.369258607578776654e-01 2.455397970921732176e-01 2.339802269324829376e-01 2.339802269324829376e-01
1.955374482947042913e-01 1.955374482947042913e-01 2.039959330851735253e-01 1.895721541812899480e-01 1.895721541812899480e-01
1.550082672967204034e-01 1.550082672967204034e-01 1.607667166144901016e-01 1.461543799433751012e-01 1.461543799433751012e-01
1.204472049382990101e-01 1.204472049382990101e-01 1.216015697628173159e-01 1.089470613330734139e-01 1.089470613330734139e-01
9.492608154804745013e-02 9.492608154804745013e-02 9.089609067255632890e-02 8.155440995167130558e-02 8.155440995167130558e-02
7.884145600632520845e-02 7.884145600632520845e-02 7.040725681300392946e-02 6.531616139713480873e-02 6.531616139713480873e-02
7.080790083437715765e-02 7.080790083437715765e-02 5.937119182895998076e-02 5.933478806362500746e-02 5.933478806362500746e-02
6.856385862275039822e-02 6.856385862275039822e-02 5.545655745482088589e-02 6.066846262897165887e-02 6.066846262897165887e-02
6.982791318135815606e-02 6.982791318135815606e-02 5.612468639319109776e-02 6.521262906443260621e-02 6.521262906443260621e-02
7.296621725382666790e-02 7.296621725382666790e-02 5.943193082335727212e-02 6.936888941225424765e-02 6.936888941225424765e-02
7.684484680060858774e-02 7.684484680060858774e-02 6.387602119753793550e-02 7.123247140089389307e-02 7.123247140089389307e-02
8.058384815063562856e-02 8.058384815063562856e-02 6.817834601656727611e-02 7.093436755165577479e-02 7.093436755165577479e-02
8.338479964525556676e-02 8.338479964525556676e-02 7.143041816261697097e-02 6.992291727148144953e-02 6.992291727148144953e-02
8.454746341081341432e-02 8.454746341081341432e-02 7.349319358333965269e-02 6.946227879240975123e-02 6.946227879240975123e-02
8.399043078135667861e-02 8.399043078135667861e-02 7.501364771803845088e-02 6.986144108348503468e-02 6.986144108348503468e-02
8.248794750867896597e-02 8.248794750867896597e-02 7.676852220789584513e-02 7.075204179490182654e-02 7.075204179490182654e-02
8.140730914139143737e-02 8.140730914139143737e-02 7.920971022304076903e-02 7.179515787814874650e-02 7.179515787814874650e-02
8.143629556032906669e-02 8.143629556032906669e-02 8.206258738961987043e-02 7.291966497085571042e-02 7.291966497085571042e-02
8.106317250804681573e-02 8.106317250804681573e-02 8.359875201777784703e-02 7.299722144947491664e-02 7.299722144947491664e-02
7.563592811121409853e-02 7.563592811121409853e-02 8.028519864929341276e-02 6.836065519020448344e-02 6.836065519020448344e-02
5.942906622409955403e-02 5.942906622409955403e-02 6.704521121273999962e-02 5.341798328169292120e-02 5.341798328169292120e-02
3.249254216444674020e-02 3.249254216444674020e-02 4.138453238829560565e-02 2.670639405543816236e-02 2.670639405543816236e-02
8.911658646062872724e-03 8.911658646062872724e-03 1.112810126068669234e-02 0.000000000000000000e+00 0.000000000000000000e+00
1.845361772093972660e-02 1.845361772093972660e-02 2.412241121684699196e-05 1.900319267985588504e-03 1.900319267985588504e-03
9.688667358640326577e-02 9.688667358640326577e-02 4.378341340530635811e-02 6.968567113752346942e-02 6.968567113752346942e-02
2.645786577314488408e-01 2.645786577314488408e-01 1.733824902715552507e-01 2.280726992412947796e-01 2.280726992412947796e-01
5.049077707655312830e-01 5.049077707655312830e-01 3.906857061353435356e-01 4.655824262709397643e-01 4.655824262709397643e-01
7.589810101952019217e-01 7.589810101952019217e-01 6.530007228064037550e-01 7.262501219937432806e-01 7.262501219937432806e-01
9.460327151825311809e-01 9.460327151825311809e-01 8.826470672281704344e-01 9.280095284380558418e-01 9.280095284380558418e-01
1.000000000000000000e+00 1.000000000000000000e+00 1.000000000000000000e+00 1.000000000000000000e+00 1.000000000000000000e+00
9.021433298241264831e-01 9.021433298241264831e-01 9.626401991447306461e-01 9.175726776565970022e-01 9.175726776565970022e-01
6.895702547536185500e-01 6.895702547536185500e-01 7.866032540019389785e-01 7.138262420694789778e-01 7.138262420694789778e-01
4.353921708299181570e-01 4.353921708299181570e-01 5.369033924645792988e-01 4.613050689652741232e-01 4.613050689652741232e-01
2.135695911496445498e-01 2.135695911496445498e-01 2.937168293651142292e-01 2.358161013434340592e-01 2.358161013434340592e-01
6.854881035419553570e-02 6.854881035419553570e-02 1.163097312652056209e-01 8.462896151875129447e-02 8.462896151875129447e-02
5.269484269933867419e-03 5.269484269933867419e-03 2.376230691401498563e-02 1.496258672997518267e-02 1.496258672997518267e-02
0.000000000000000000e+00 0.000000000000000000e+00 0.000000000000000000e+00 4.497409898111567710e-03 4.497409898111567710e-03
2.057924732754468425e-02 2.057924732754468425e-02 1.326287280104119712e-02 2.164753462550425556e-02 2.164753462550425556e-02
4.224345014860165365e-02 4.224345014860165365e-02 3.494409600274327177e-02 4.169013255230949455e-02 4.169013255230949455e-02
5.449964815421268205e-02 5.449964815421268205e-02 4.942818133472146741e-02 5.349714778937441489e-02 5.349714778937441489e-02
5.813281823850148522e-02 5.813281823850148522e-02 5.405387016872946482e-02 5.698570499271995993e-02 5.698570499271995993e-02
5.796556043390818647e-02 5.796556043390818647e-02 5.278812395554598191e-02 5.634892548405694840e-02 5.634892548405694840e-02
5.760563545322732598e-02 5.760563545322732598e-02 5.035225524133606773e-02 5.493608641102880330e-02 5.493608641102880330e-02
5.817598950074902298e-02 5.817598950074902298e-02 4.966136464315098337e-02 5.416608787928302998e-02 5.416608787928302998e-02
5.896244655243550875e-02 5.896244655243550875e-02 5.116672680775514320e-02 5.390917431294793560e-02 5.390917431294793560e-02
5.904410191131512914e-02 5.904410191131512914e-02 5.379223478553134957e-02 5.359523756217351304e-02 5.359523756217351304e-02
5.814922331815555040e-02 5.814922331815555040e-02 5.613421165300493121e-02 5.315871951903603648e-02 5.315871951903603648e-02
5.695646301548799861e-02 5.695646301548799861e-02 5.741443131291851937e-02 5.332471759608066464e-02 5.332471759608066464e-02
5.681917840154084715e-02 5.681917840154084715e-02 5.776773185874064381e-02 5.479161118451007784e-02 5.479161118451007784e-02
5.855959700243424521e-02 5.855959700243424521e-02 5.804903628493095213e-02 5.754171196463919030e-02 5.754171196463919030e-02
6.198492829561706718e-02 6.198492829561706718e-02 5.907627988874991631e-02 6.070470513014459418e-02 6.070470513014459418e-02
6.609581923329072017e-02 6.609581923329072017e-02 6.123220492817150334e-02 6.322300233621884480e-02 6.322300233621884480e-02
6.984579841857499471e-02 6.984579841857499471e-02 6.414681072653115324e-02 6.472589103673467847e-02 6.472589103673467847e-02
7.253277778086143768e-02 7.253277778086143768e-02 6.685099487627615966e-02 6.574760796399894969e-02 6.574760796399894969e-02
7.426604228686810305e-02 7.426604228686810305e-02 6.826444446891047346e-02 6.716490004058417451e-02 6.716490004058417451e-02
7.548556877212912741e-02 7.548556877212912741e-02 6.774599818475762758e-02 6.939053595732340429e-02 6.939053595732340429e-02
7.646518638575743043e-02 7.646518638575743043e-02 6.536356988924349465e-02 7.185156258987181188e-02 7.185156258987181188e-02
7.695400842086307092e-02 7.695400842086307092e-02 6.187299513382928107e-02 7.325277437583424534e-02 7.325277437583424534e-02
7.656731725758873786e-02 7.656731725758873786e-02 5.834444304383264862e-02 7.274748216664846112e-02 7.274748216664846112e-02
7.571203287923332359e-02 7.571203287923332359e-02 5.585030942868357551e-02 7.092719326814712899e-02 7.092719326814712899e-02
7.613486455633201866e-02 7.613486455633201866e-02 5.576223170157385695e-02 7.020073521562618379e-02 7.020073521562618379e-02
8.098077707038581208e-02 8.098077707038581208e-02 6.035155136174722573e-02 7.433040123664856613e-02 7.433040123664856613e-02
9.370100447192603044e-02 9.370100447192603044e-02 7.245382692157581461e-02 8.700983408727218371e-02 8.700983408727218371e-02
1.167716036705440663e-01 1.167716036705440663e-01 9.460723085976355251e-02 1.104374568847207722e-01 1.104374568847207722e-01
1.499875728437958800e-01 1.499875728437958800e-01 1.274443888735563857e-01 1.444788136604790163e-01 1.444788136604790163e-01
1.908401682692456025e-01 1.908401682692456025e-01 1.689372865553184500e-01 1.868978781561745073e-01 1.868978781561745073e-01
2.356446610408344522e-01 2.356446610408344522e-01 2.152401930337198011e-01 2.340429400659118642e-01 2.340429400659118642e-01
2.811957699563785162e-01 2.811957699563785162e-01 2.623721682299432478e-01 2.821550459147960099e-01 2.821550459147960099e-01
3.254725865568389720e-01 3.254725865568389720e-01 3.075531970297518125e-01 3.282402929779473788e-01 3.282402929779473788e-01
3.674855021650387799e-01 3.674855021650387799e-01 3.494744839937904968e-01 3.703811684458683806e-01 3.703811684458683806e-01
4.061985298335007988e-01 4.061985298335007988e-01 3.877514312939916996e-01 4.073801854453331095e-01 4.073801854453331095e-01
4.405808631662173624e-01 4.405808631662173624e-01 4.220799728443502263e-01 4.388413977433909818e-01 4.388413977433909818e-01
4.700017083485203417e-01 4.700017083485203417e-01 4.523779687420558249e-01 4.652662630183868053e-01 4.652662630183868053e-01
4.946697675967606789e-01 4.946697675967606789e-01 4.789992143516223488e-01 4.876757560303254246e-01 4.876757560303254246e-01
5.151968393702176519e-01 5.151968393702176519e-01 5.024135400207502267e-01 5.070294990457584472e-01 5.070294990457584472e-01
5.318360306121253656e-01 5.318360306121253656e-01 5.225999159550451800e-01 5.236802689020414459e-01 5.236802689020414459e-01
5.442441914608476816e-01 5.442441914608476816e-01 5.389447669768890892e-01 5.370521438057916930e-01 5.370521438057916930e-01
5.518551616486241373e-01 5.518551616486241373e-01 5.503988300506854614e-01 5.460113395735580744e-01 5.460113395735580744e-01
5.543233243845474556e-01 5.543233243845474556e-01 5.560872657296367372e-01 5.492429832105685250e-01 5.492429832105685250e-01
5.511831701151254093e-01 5.511831701151254093e-01 5.553598822529441925e-01 5.456627683506730664e-01 5.456627683506730664e-01
5.416151849364364557e-01 5.416151849364364557e-01 5.478458130112328073e-01 5.346722607936167382e-01 5.346722607936167382e-01
5.241436517583963894e-01 5.241436517583963894e-01 5.332268895857860125e-01 5.158172541765772001e-01 5.158172541765772001e-01
4.975052561011786278e-01 4.975052561011786278e-01 5.108796404251532142e-01 4.887464559967176214e-01 4.887464559967176214e-01
4.616763154437790173e-01 4.616763154437790173e-01 4.801657494171345242e-01 4.535452154888822696e-01 4.535452154888822696e-01
4.181466083731280037e-01 4.181466083731280037e-01 4.407390908869365242e-01 4.110840948484809632e-01 4.110840948484809632e-01
3.689994566588279956e-01 3.689994566588279956e-01 3.928349511224281665e-01 3.627217549385974293e-01 3.627217549385974293e-01
3.159318609465977534e-01 3.159318609465977534e-01 3.376262978321127317e-01 3.101030857954010789e-01 3.101030857954010789e-01
2.601795061084252181e-01 2.601795061084252181e-01 2.778207788965765812e-01 2.550575297135939667e-01 2.550575297135939667e-01
2.032649808905491184e-01 2.032649808905491184e-01 2.173817683310841631e-01 1.997169621461300226e-01 1.997169621461300226e-01
1.481027155340685908e-01 1.481027155340685908e-01 1.608966065210423457e-01 1.469995847574183112e-01 1.469995847574183112e-01
9.902229425655693917e-02 9.902229425655693917e-02 1.124476713770519720e-01 1.002841139963962791e-01 1.002841139963962791e-01
6.040683364077439194e-02 6.040683364077439194e-02 7.480916389372332942e-02 6.269049732751755255e-02 6.269049732751755255e-02
3.497155938916364504e-02 3.497155938916364504e-02 4.904840798889725795e-02 3.639959324286396597e-02 3.639959324286396597e-02
2.246015755043791196e-02 2.246015755043791196e-02 3.416401433539231758e-02 2.152680875128997959e-02 2.152680875128997959e-02
1.983028760078177008e-02 1.983028760078177008e-02 2.756634931057530200e-02 1.601040320586569546e-02 1.601040320586569546e-02
2.259016472303476686e-02 2.259016472303476686e-02 2.611121124317134640e-02 1.626360593590321993e-02 1.626360593590321993e-02
2.671302026767416113e-02 2.671302026767416113e-02 2.705693346754465753e-02 1.876025659690830349e-02 1.876025659690830349e-02
