7.710042240251854251e-01 7.466229992078131650e-01 7.826289281384246621e-01 7.826289281384246621e-01 7.826289281384246621e-01
7.823955382500443756e-01 7.696439140921437216e-01 7.965996416500411570e-01 7.965996416500411570e-01 7.965996416500411570e-01
7.820346412760608157e-01 7.816247419379906969e-01 7.970616241412004088e-01 7.970616241412004088e-01 7.970616241412004088e-01
7.706981060561814978e-01 7.810033416560615560e-01 7.847367551169582844e-01 7.847367551169582844e-01 7.847367551169582844e-01
7.499234705077489904e-01 7.679070452280166714e-01 7.619451430713178874e-01 7.619451430713178874e-01 7.619451430713178874e-01
7.219870842384288334e-01 7.439088068558772360e-01 7.320028455103427811e-01 7.320028455103427811e-01 7.320028455103427811e-01
6.900589800713173849e-01 7.119897107674247883e-01 6.987087023491977966e-01 6.987087023491977966e-01 6.987087023491977966e-01
6.580048036353925989e-01 6.763582810707973181e-01 6.659035611804605681e-01 6.659035611804605681e-01 6.659035611804605681e-01
6.296129661904786845e-01 6.418938590918016329e-01 6.372183331700267406e-01 6.372183331700267406e-01 6.372183331700267406e-01
6.078071964306644981e-01 6.130824718128931039e-01 6.153692428962417305e-01 6.153692428962417305e-01 6.153692428962417305e-01
5.935712004214761528e-01 5.928282989872155628e-01 6.012692436201604318e-01 6.012692436201604318e-01 6.012692436201604318e-01
5.858219851508618126e-01 5.813883288920409509e-01 5.937833123685793968e-01 5.937833123685793968e-01 5.937833123685793968e-01
5.821161451853080759e-01 5.766463242035965164e-01 5.906437482838793329e-01 5.906437482838793329e-01 5.906437482838793329e-01
5.798794700775726785e-01 5.755473279333119807e-01 5.898944414360467459e-01 5.898944414360467459e-01 5.898944414360467459e-01
5.776278918581884136e-01 5.757980506686293243e-01 5.905108939060420559e-01 5.905108939060420559e-01 5.905108939060420559e-01
5.752742071846692617e-01 5.766249000923965307e-01 5.919409902249561650e-01 5.919409902249561650e-01 5.919409902249561650e-01
5.736608446519780857e-01 5.781663244703874049e-01 5.936549442475532734e-01 5.936549442475532734e-01 5.936549442475532734e-01
5.738226642494088647e-01 5.804913458212321853e-01 5.951238874720360394e-01 5.951238874720360394e-01 5.951238874720360394e-01
5.763123901650740732e-01 5.831307558982246064e-01 5.959876958289332949e-01 5.959876958289332949e-01 5.959876958289332949e-01
5.806853457703156085e-01 5.854210135969334372e-01 5.960771150840087351e-01 5.960771150840087351e-01 5.960771150840087351e-01
5.856010565903372322e-01 5.870195352524149035e-01 5.951900597599995013e-01 5.951900597599995013e-01 5.951900597599995013e-01
5.895035572116358313e-01 5.882132220519185051e-01 5.932174322480908701e-01 5.932174322480908701e-01 5.932174322480908701e-01
5.913998774722550866e-01 5.895817376833846213e-01 5.902356008744530369e-01 5.902356008744530369e-01 5.902356008744530369e-01
5.910263934107301553e-01 5.910919354087300626e-01 5.867919909304201154e-01 5.867919909304201154e-01 5.867919909304201154e-01
5.889874866224433791e-01 5.918674478113198356e-01 5.839057983951639885e-01 5.839057983951639885e-01 5.839057983951639885e-01
5.866185967471743146e-01 5.911082056063867718e-01 5.830377077022198540e-01 5.830377077022198540e-01 5.830377077022198540e-01
5.862920373480033920e-01 5.898116426502717502e-01 5.863033967795405754e-01 5.863033967795405754e-01 5.863033967795405754e-01
5.926986635131145098e-01 5.930765963514535999e-01 5.977393751928963272e-01 5.977393751928963272e-01 5.977393751928963272e-01
6.122264725180579514e-01 6.092891914449481972e-01 6.226961159517935274e-01 6.226961159517935274e-01 6.226961159517935274e-01
6.490282969811531633e-01 6.445741973057563801e-01 6.639585649320928207e-01 6.639585649320928207e-01 6.639585649320928207e-01
6.991251067888506476e-01 6.954967832000205075e-01 7.162715820815231949e-01 7.162715820815231949e-01 7.162715820815231949e-01
7.465472108423761854e-01 7.450283177232071008e-01 7.629978840161909526e-01 7.629978840161909526e-01 7.629978840161909526e-01
7.660478317382304336e-01 7.663306550836334052e-01 7.792121337748761922e-01 7.792121337748761922e-01 7.792121337748761922e-01
7.332772989761562332e-01 7.340343127352294550e-01 7.419475513755424689e-01 7.419475513755424689e-01 7.419475513755424689e-01
6.375824051447152030e-01 6.377724462282599038e-01 6.421778900746768493e-01 6.421778900746768493e-01 6.421778900746768493e-01
4.900183388830641196e-01 4.894315971078662675e-01 4.918233381400856086e-01 4.918233381400856086e-01 4.918233381400856086e-01
3.207852489806473084e-01 3.197897243697142566e-01 3.209289691978705616e-01 3.209289691978705616e-01 3.209289691978705616e-01
1.667370200946307335e-01 1.656908421929275677e-01 1.655789703041406769e-01 1.655789703041406769e-01 1.655789703041406769e-01
5.645359110614519421e-02 5.551260066174228819e-02 5.429767598642336324e-02 5.429767598642336324e-02 5.429767598642336324e-02
2.088348868148948850e-03 1.358510975764176329e-03 0.000000000000000000e+00 0.000000000000000000e+00 0.000000000000000000e+00
0.000000000000000000e+00 0.000000000000000000e+00 1.068544804093831633e-04 1.068544804093831633e-04 1.068544804093831633e-04
3.711207099681274740e-02 3.861049278184302408e-02 4.162573382161480900e-02 4.162573382161480900e-02 4.162573382161480900e-02
9.818320999330165666e-02 1.016278989626788892e-01 1.079327114497736495e-01 1.079327114497736495e-01 1.079327114497736495e-01
1.690606971514514723e-01 1.742992926102076012e-01 1.826264403051021668e-01 1.826264403051021668e-01 1.826264403051021668e-01
2.375611380016054985e-01 2.439563542347433778e-01 2.518315398332193200e-01 2.518315398332193200e-01 2.518315398332193200e-01
2.942882213458476448e-01 3.010127035884274660e-01 3.059813732656411767e-01 3.059813732656411767e-01 3.059813732656411767e-01
3.339469118940122661e-01 3.402019505440562197e-01 3.409218707160708295e-01 3.409218707160708295e-01 3.409218707160708295e-01
3.566490836801663455e-01 3.615607788392032340e-01 3.580779285239368837e-01 3.580779285239368837e-01 3.580779285239368837e-01
3.669221610478579088e-01 3.693115574085839570e-01 3.628753684210955788e-01 3.628753684210955788e-01 3.628753684210955788e-01
3.707576983634369716e-01 3.698734350419432548e-01 3.619327446888582211e-01 3.619327446888582211e-01 3.619327446888582211e-01
3.736293668634548815e-01 3.696754641275996067e-01 3.615618128188874403e-01 3.615618128188874403e-01 3.615618128188874403e-01
3.803031413745421863e-01 3.745311580853837863e-01 3.673689663796855798e-01 3.673689663796855798e-01 3.673689663796855798e-01
3.945969372897201177e-01 3.886207450275092623e-01 3.834030521432530980e-01 3.834030521432530980e-01 3.834030521432530980e-01
4.187261827129543645e-01 4.135139453278914856e-01 4.110992644476076929e-01 4.110992644476076929e-01 4.110992644476076929e-01
4.527293437837711654e-01 4.481037792031099531e-01 4.487976882726493755e-01 4.487976882726493755e-01 4.487976882726493755e-01
4.941817446549184312e-01 4.893135623820094593e-01 4.925145275701383052e-01 4.925145275701383052e-01 4.925145275701383052e-01
5.390283292040972674e-01 5.331115196738522855e-01 5.376519808710088499e-01 5.376519808710088499e-01 5.376519808710088499e-01
5.833243041958703357e-01 5.760185573225843347e-01 5.810271509281810243e-01 5.810271509281810243e-01 5.810271509281810243e-01
6.240678002966927318e-01 6.153216956618094979e-01 6.209815501669040394e-01 6.209815501669040394e-01 6.209815501669040394e-01
6.595812104790624852e-01 6.491906890408496444e-01 6.565812214874163777e-01 6.565812214874163777e-01 6.565812214874163777e-01
6.892433367986424697e-01 6.769443113578207383e-01 6.870517757878963350e-01 6.870517757878963350e-01 6.870517757878963350e-01
7.132829621585827784e-01 6.990322668336669265e-01 7.118467054204483668e-01 7.118467054204483668e-01 7.118467054204483668e-01
7.329862855122017962e-01 7.171516078239641434e-01 7.313150207728984498e-01 7.313150207728984498e-01 7.313150207728984498e-01
7.501032141178385348e-01 7.334618241033984409e-01 7.467439716688804019e-01 7.467439716688804019e-01 7.467439716688804019e-01
7.660108760492092550e-01 7.495958978082022384e-01 7.599204138041714129e-01 7.599204138041714129e-01 7.599204138041714129e-01
7.811038009782079738e-01 7.658081897303118390e-01 7.721706478287383435e-01 7.721706478287383435e-01 7.721706478287383435e-01
7.949550348954345091e-01 7.813499676061375077e-01 7.838533703667035502e-01 7.838533703667035502e-01 7.838533703667035502e-01
8.070257497574216954e-01 7.952192500085646376e-01 7.949547148061054669e-01 7.949547148061054669e-01 7.949547148061054669e-01
8.173341716669291213e-01 8.071761273150040994e-01 8.057725074229706852e-01 8.057725074229706852e-01 8.057725074229706852e-01
8.264889114807529857e-01 8.180343115225439110e-01 8.170685961921263507e-01 8.170685961921263507e-01 8.170685961921263507e-01
8.354400425665091667e-01 8.293698896041824531e-01 8.297940675575217195e-01 8.297940675575217195e-01 8.297940675575217195e-01
8.450642303972726310e-01 8.427059945976880240e-01 8.446341972470492454e-01 8.446341972470492454e-01 8.446341972470492454e-01
8.561656388218807923e-01 8.589713415121562612e-01 8.616187576922735847e-01 8.616187576922735847e-01 8.616187576922735847e-01
8.695564874251974219e-01 8.778290058818279951e-01 8.800052733909606850e-01 8.800052733909606850e-01 8.800052733909606850e-01
8.857257593840262011e-01 8.978108297467316534e-01 8.986014196351836958e-01 8.986014196351836958e-01 8.986014196351836958e-01
9.042398547067450609e-01 9.167549990182299879e-01 9.162858361429366827e-01 9.162858361429366827e-01 9.162858361429366827e-01
9.237552780175478651e-01 9.327759897964639224e-01 9.325742110993867628e-01 9.325742110993867628e-01 9.325742110993867628e-01
9.428421361717450599e-01 9.456023626348140088e-01 9.476300889573745501e-01 9.476300889573745501e-01 9.476300889573745501e-01
9.604509681584949554e-01 9.565213832335915933e-01 9.617878997700894939e-01 9.617878997700894939e-01 9.617878997700894939e-01
9.758964322353499421e-01 9.672378853472519689e-01 9.751275804770747069e-01 9.751275804770747069e-01 9.751275804770747069e-01
9.883262315307147494e-01 9.784665449871470244e-01 9.868236598250910152e-01 9.868236598250910152e-01 9.868236598250910152e-01
9.966391469297777306e-01 9.891804196154715401e-01 9.953944495418971528e-01 9.953944495418971528e-01 9.953944495418971528e-01
1.000000000000000000e+00 9.971144147584638517e-01 9.998423692493197956e-01 9.998423692493197956e-01 9.998423692493197956e-01
9.982794961781574772e-01 1.000000000000000000e+00 1.000000000000000000e+00 1.000000000000000000e+00 1.000000000000000000e+00
9.920890658286553032e-01 9.966859325344632481e-01 9.963222890187343195e-01 9.963222890187343195e-01 9.963222890187343195e-01
9.825399977363381554e-01 9.875950353866693732e-01 9.890910548015642290e-01 9.890910548015642290e-01 9.890910548015642290e-01
9.701802833444032048e-01 9.739211974703784191e-01 9.778117894954501121e-01 9.778117894954501121e-01 9.778117894954501121e-01
9.542834966566681176e-01 9.565753477401048865e-01 9.613084820535963138e-01 9.613084820535963138e-01 9.613084820535963138e-01
9.337365363476823887e-01 9.359984995037590183e-01 9.390550169045215334e-01 9.390550169045215334e-01 9.390550169045215334e-01
9.082715491945673181e-01 9.126138800146694763e-01 9.123342595754309059e-01 9.123342595754309059e-01 9.123342595754309059e-01
8.791859114843780798e-01 8.871420265976298625e-01 8.839119873903555913e-01 8.839119873903555913e-01 8.839119873903555913e-01
8.493649864683774364e-01 8.609344772865514805e-01 8.570972225889963436e-01 8.570972225889963436e-01 8.570972225889963436e-01
8.220520134708018123e-01 8.354599963841758958e-01 8.339475256815260806e-01 8.339475256815260806e-01 8.339475256815260806e-01
7.986654062125030373e-01 8.111343329163379634e-01 8.140738158499657429e-01 8.140738158499657429e-01 8.140738158499657429e-01
7.779662931893182032e-01 7.870853638657908657e-01 7.949511461927331046e-01 7.949511461927331046e-01 7.949511461927331046e-01
7.572991010201380879e-01 7.622765462675408221e-01 7.735713795576163454e-01 7.735713795576163454e-01 7.735713795576163454e-01
7.348706228654816597e-01 7.368328877892974527e-01 7.486161682044500942e-01 7.486161682044500942e-01 7.486161682044500942e-01
7.111558450608067572e-01 7.123133967493762153e-01 7.212513271418231620e-01 7.212513271418231620e-01 7.212513271418231620e-01
6.883090728129784841e-01 6.904958701488662642e-01 6.941430184004843129e-01 6.941430184004843129e-01 6.941430184004843129e-01
6.681036757115128566e-01 6.719259154234702436e-01 6.694818607892080164e-01 6.694818607892080164e-01 6.694818607892080164e-01
