7.853355484882340587e-01 7.917537013663640266e-01 7.917537013663640266e-01 7.917537013663640266e-01 7.917537013663640266e-01
7.988855294202928947e-01 8.021131260791815043e-01 8.021131260791815043e-01 8.021131260791815043e-01 8.021131260791815043e-01
7.993800453665512729e-01 7.982164542081296998e-01 7.982164542081296998e-01 7.982164542081296998e-01 7.982164542081296998e-01
7.863908682913101078e-01 7.803766875139586112e-01 7.803766875139586112e-01 7.803766875139586112e-01 7.803766875139586112e-01
7.615377819231444745e-01 7.510201795343629527e-01 7.510201795343629527e-01 7.510201795343629527e-01 7.510201795343629527e-01
7.284225988500674376e-01 7.144949976655670110e-01 7.144949976655670110e-01 7.144949976655670110e-01 7.144949976655670110e-01
6.920600198396056335e-01 6.764525112928388983e-01 6.764525112928388983e-01 6.764525112928388983e-01 6.764525112928388983e-01
6.574794876025849000e-01 6.425758926679927541e-01 6.425758926679927541e-01 6.425758926679927541e-01 6.425758926679927541e-01
6.287326981690811722e-01 6.171064131095930216e-01 6.171064131095930216e-01 6.171064131095930216e-01 6.171064131095930216e-01
6.079636384376753133e-01 6.017662491360649124e-01 6.017662491360649124e-01 6.017662491360649124e-01 6.017662491360649124e-01
5.952278194500320030e-01 5.952989823390474333e-01 5.952989823390474333e-01 5.952989823390474333e-01 5.952989823390474333e-01
5.891380751759807133e-01 5.944868807533052468e-01 5.944868807533052468e-01 5.944868807533052468e-01 5.944868807533052468e-01
5.877544675459168699e-01 5.956732302653723332e-01 5.956732302653723332e-01 5.956732302653723332e-01 5.956732302653723332e-01
5.893709978801086047e-01 5.966291628798172653e-01 5.966291628798172653e-01 5.966291628798172653e-01 5.966291628798172653e-01
5.924035681196224701e-01 5.967816114594550747e-01 5.967816114594550747e-01 5.967816114594550747e-01 5.967816114594550747e-01
5.955707475517444394e-01 5.965243160101066922e-01 5.965243160101066922e-01 5.965243160101066922e-01 5.965243160101066922e-01
5.979354569255158625e-01 5.963693026831667909e-01 5.963693026831667909e-01 5.963693026831667909e-01 5.963693026831667909e-01
5.990968170517719793e-01 5.964396793491368864e-01 5.964396793491368864e-01 5.964396793491368864e-01 5.964396793491368864e-01
5.992102791808888718e-01 5.964610180466904943e-01 5.964610180466904943e-01 5.964610180466904943e-01 5.964610180466904943e-01
5.986611672101360693e-01 5.959289868663394385e-01 5.959289868663394385e-01 5.959289868663394385e-01 5.959289868663394385e-01
5.977254096506454673e-01 5.943341244039912485e-01 5.943341244039912485e-01 5.943341244039912485e-01 5.943341244039912485e-01
5.965428007923235798e-01 5.916313936970206688e-01 5.916313936970206688e-01 5.916313936970206688e-01 5.916313936970206688e-01
5.951937604775819901e-01 5.885216888881502628e-01 5.885216888881502628e-01 5.885216888881502628e-01 5.885216888881502628e-01
5.939324601426145822e-01 5.861152377895202381e-01 5.861152377895202381e-01 5.861152377895202381e-01 5.861152377895202381e-01
5.932966248778325236e-01 5.854764105315090061e-01 5.854764105315090061e-01 5.854764105315090061e-01 5.854764105315090061e-01
5.941336622515054344e-01 5.873893016593196847e-01 5.873893016593196847e-01 5.873893016593196847e-01 5.873893016593196847e-01
5.984587450783513951e-01 5.935318714478891033e-01 5.935318714478891033e-01 5.935318714478891033e-01 5.935318714478891033e-01
6.109052153030318788e-01 6.081288742431558703e-01 6.081288742431558703e-01 6.081288742431558703e-01 6.081288742431558703e-01
6.371231006149830067e-01 6.367099052284835858e-01 6.367099052284835858e-01 6.367099052284835858e-01 6.367099052284835858e-01
6.789244400171169369e-01 6.810355095419371452e-01 6.810355095419371452e-01 6.810355095419371452e-01 6.810355095419371452e-01
7.288610954117887841e-01 7.333597399715559018e-01 7.333597399715559018e-01 7.333597399715559018e-01 7.333597399715559018e-01
7.677046926452241182e-01 7.740298612502486408e-01 7.740298612502486408e-01 7.740298612502486408e-01 7.740298612502486408e-01
7.696379205889132269e-01 7.770698049325014400e-01 7.770698049325014400e-01 7.770698049325014400e-01 7.770698049325014400e-01
7.139361486784966404e-01 7.219894970520281952e-01 7.219894970520281952e-01 7.219894970520281952e-01 7.219894970520281952e-01
5.970677156423507270e-01 6.053950587988836674e-01 6.053950587988836674e-01 6.053950587988836674e-01 6.053950587988836674e-01
4.374380901924291298e-01 4.455171243560817063e-01 4.455171243560817063e-01 4.455171243560817063e-01 4.455171243560817063e-01
2.690161664216962345e-01 2.759644501402352401e-01 2.759644501402352401e-01 2.759644501402352401e-01 2.759644501402352401e-01
1.271392974355830541e-01 1.320841782893320271e-01 1.320841782893320271e-01 1.320841782893320271e-01 1.320841782893320271e-01
3.530807255598151367e-02 3.774836115212142074e-02 3.774836115212142074e-02 3.774836115212142074e-02 3.774836115212142074e-02
0.000000000000000000e+00 0.000000000000000000e+00 0.000000000000000000e+00 0.000000000000000000e+00 0.000000000000000000e+00
1.340957663070547513e-02 1.190750618437516964e-02 1.190750618437516964e-02 1.190750618437516964e-02 1.190750618437516964e-02
6.078631898860915178e-02 5.939380248306522919e-02 5.939380248306522919e-02 5.939380248306522919e-02 5.939380248306522919e-02
1.270256319693172375e-01 1.272477830067845761e-01 1.272477830067845761e-01 1.272477830067845761e-01 1.272477830067845761e-01
1.986766615008863923e-01 2.012138641211241863e-01 2.012138641211241863e-01 2.012138641211241863e-01 2.012138641211241863e-01
2.645787398200526996e-01 2.688380432865739023e-01 2.688380432865739023e-01 2.688380432865739023e-01 2.688380432865739023e-01
3.163898587223655801e-01 3.207333453773866805e-01 3.207333453773866805e-01 3.207333453773866805e-01 3.207333453773866805e-01
3.500199931251710139e-01 3.524521908020159522e-01 3.524521908020159522e-01 3.524521908020159522e-01 3.524521908020159522e-01
3.665561834267819785e-01 3.658077533131662284e-01 3.658077533131662284e-01 3.658077533131662284e-01 3.658077533131662284e-01
3.715110014039413322e-01 3.672850477591854124e-01 3.672850477591854124e-01 3.672850477591854124e-01 3.672850477591854124e-01
3.728775287134930005e-01 3.651053203220624988e-01 3.651053203220624988e-01 3.651053203220624988e-01 3.651053203220624988e-01
3.786861593791140956e-01 3.666977206270006784e-01 3.666977206270006784e-01 3.666977206270006784e-01 3.666977206270006784e-01
3.946755760871852869e-01 3.772896140352821059e-01 3.772896140352821059e-01 3.772896140352821059e-01 3.772896140352821059e-01
4.229923074506493075e-01 3.991187938629495724e-01 3.991187938629495724e-01 3.991187938629495724e-01 3.991187938629495724e-01
4.621590074137741366e-01 4.312297378551264715e-01 4.312297378551264715e-01 4.312297378551264715e-01 4.312297378551264715e-01
5.080274964693045625e-01 4.705444414795965646e-01 4.705444414795965646e-01 4.705444414795965646e-01 4.705444414795965646e-01
5.553915302553985578e-01 5.132094232098756148e-01 5.132094232098756148e-01 5.132094232098756148e-01 5.132094232098756148e-01
5.998795634066740323e-01 5.558169546005873318e-01 5.558169546005873318e-01 5.558169546005873318e-01 5.558169546005873318e-01
6.389168392744889458e-01 5.960949773117324435e-01 5.960949773117324435e-01 5.960949773117324435e-01 5.960949773117324435e-01
6.716802490798740033e-01 6.324326248577976095e-01 6.324326248577976095e-01 6.324326248577976095e-01 6.324326248577976095e-01
6.985516599885663869e-01 6.638082045035116341e-01 6.638082045035116341e-01 6.638082045035116341e-01 6.638082045035116341e-01
7.203391338305129565e-01 6.900370544431220221e-01 6.900370544431220221e-01 6.900370544431220221e-01 6.900370544431220221e-01
7.383061059807454196e-01 7.121948296951366997e-01 7.121948296951366997e-01 7.121948296951366997e-01 7.121948296951366997e-01
7.536445388064373363e-01 7.321277379575111821e-01 7.321277379575111821e-01 7.321277379575111821e-01 7.321277379575111821e-01
7.673728464181297504e-01 7.510739366378152981e-01 7.510739366378152981e-01 7.510739366378152981e-01 7.510739366378152981e-01
7.799993716882097639e-01 7.691016480142854883e-01 7.691016480142854883e-01 7.691016480142854883e-01 7.691016480142854883e-01
7.916270032140486634e-01 7.850831014032347843e-01 7.850831014032347843e-01 7.850831014032347843e-01 7.850831014032347843e-01
8.022770913962866679e-01 7.978342042702222248e-01 7.978342042702222248e-01 7.978342042702222248e-01 7.978342042702222248e-01
8.123745092076652963e-01 8.073514685589167073e-01 8.073514685589167073e-01 8.073514685589167073e-01 8.073514685589167073e-01
8.231176241355502299e-01 8.150402732009862650e-01 8.150402732009862650e-01 8.150402732009862650e-01 8.150402732009862650e-01
8.359721920181831800e-01 8.228336169430899849e-01 8.228336169430899849e-01 8.228336169430899849e-01 8.228336169430899849e-01
8.519099610904198316e-01 8.322796838466777203e-01 8.322796838466777203e-01 8.322796838466777203e-01 8.322796838466777203e-01
8.708012022512269246e-01 8.441388701918810522e-01 8.441388701918810522e-01 8.441388701918810522e-01 8.441388701918810522e-01
8.912373990697934900e-01 8.587074555870404247e-01 8.587074555870404247e-01 8.587074555870404247e-01 8.587074555870404247e-01
9.114182044292727936e-01 8.759220394788475028e-01 8.759220394788475028e-01 8.759220394788475028e-01 8.759220394788475028e-01
9.296941473773422393e-01 8.951393832439313858e-01 8.951393832439313858e-01 8.951393832439313858e-01 8.951393832439313858e-01
9.453206072745288235e-01 9.148317182093672617e-01 9.148317182093672617e-01 9.148317182093672617e-01 9.148317182093672617e-01
9.585247117162153385e-01 9.333602734389947475e-01 9.333602734389947475e-01 9.333602734389947475e-01 9.333602734389947475e-01
9.700592148278328608e-01 9.497996881062100716e-01 9.497996881062100716e-01 9.497996881062100716e-01 9.497996881062100716e-01
9.805691020458665585e-01 9.641946914039621896e-01 9.641946914039621896e-01 9.641946914039621896e-01 9.641946914039621896e-01
9.898937370226419397e-01 9.771298405373494145e-01 9.771298405373494145e-01 9.771298405373494145e-01 9.771298405373494145e-01
9.969045985814590782e-01 9.883919537106199416e-01 9.883919537106199416e-01 9.883919537106199416e-01 9.883919537106199416e-01
1.000000000000000000e+00 9.966067367294075829e-01 9.966067367294075829e-01 9.966067367294075829e-01 9.966067367294075829e-01
9.977885051679661332e-01 1.000000000000000000e+00 1.000000000000000000e+00 1.000000000000000000e+00 1.000000000000000000e+00
9.898126055002088863e-01 9.975610279055791008e-01 9.975610279055791008e-01 9.975610279055791008e-01 9.975610279055791008e-01
9.763390793361570452e-01 9.897693256017486840e-01 9.897693256017486840e-01 9.897693256017486840e-01 9.897693256017486840e-01
9.577591473504000197e-01 9.781969805948141916e-01 9.781969805948141916e-01 9.781969805948141916e-01 9.781969805948141916e-01
9.348391872573489358e-01 9.639964877324546100e-01 9.639964877324546100e-01 9.639964877324546100e-01 9.639964877324546100e-01
9.088862502504859719e-01 9.470568447514344790e-01 9.470568447514344790e-01 9.470568447514344790e-01 9.470568447514344790e-01
8.817161370699787559e-01 9.265565117959396746e-01 9.265565117959396746e-01 9.265565117959396746e-01 9.265565117959396746e-01
8.550515200417735384e-01 9.018450689501534834e-01 9.018450689501534834e-01 9.018450689501534834e-01 9.018450689501534834e-01
8.299971298961424937e-01 8.733117422646451411e-01 8.733117422646451411e-01 8.733117422646451411e-01 8.733117422646451411e-01
8.064073772344337865e-01 8.429906841196694867e-01 8.429906841196694867e-01 8.429906841196694867e-01 8.429906841196694867e-01
7.832282639450396378e-01 8.135010144601478865e-01 8.135010144601478865e-01 8.135010144601478865e-01 8.135010144601478865e-01
7.596167542083926971e-01 7.865508549892901158e-01 7.865508549892901158e-01 7.865508549892901158e-01 7.865508549892901158e-01
7.358652468446903461e-01 7.622949112643598868e-01 7.622949112643598868e-01 7.622949112643598868e-01 7.622949112643598868e-01
7.130149297251563434e-01 7.398038214529621959e-01 7.398038214529621959e-01 7.398038214529621959e-01 7.398038214529621959e-01
6.917806345969415016e-01 7.183140089883107704e-01 7.183140089883107704e-01 7.183140089883107704e-01 7.183140089883107704e-01
6.717868994145008710e-01 6.979286793018429913e-01 6.979286793018429913e-01 6.979286793018429913e-01 6.979286793018429913e-01
6.521017283555992083e-01 6.794454688045169499e-01 6.794454688045169499e-01 6.794454688045169499e-01 6.794454688045169499e-01
6.322315204911487241e-01 6.632905359080524255e-01 6.632905359080524255e-01 6.632905359080524255e-01 6.632905359080524255e-01
