7.413470722958847015e-01 7.413470722958847015e-01 7.413470722958847015e-01 7.413470722958847015e-01 7.413470722958847015e-01
7.706193466386175306e-01 7.706193466386175306e-01 7.706193466386175306e-01 7.706193466386175306e-01 7.706193466386175306e-01
7.897838525201519300e-01 7.897838525201519300e-01 7.897838525201519300e-01 7.897838525201519300e-01 7.897838525201519300e-01
7.968927899655998681e-01 7.968927899655998681e-01 7.968927899655998681e-01 7.968927899655998681e-01 7.968927899655998681e-01
7.908629773174864486e-01 7.908629773174864486e-01 7.908629773174864486e-01 7.908629773174864486e-01 7.908629773174864486e-01
7.712930896864270691e-01 7.712930896864270691e-01 7.712930896864270691e-01 7.712930896864270691e-01 7.712930896864270691e-01
7.394893346161125480e-01 7.394893346161125480e-01 7.394893346161125480e-01 7.394893346161125480e-01 7.394893346161125480e-01
6.995729749016261767e-01 6.995729749016261767e-01 6.995729749016261767e-01 6.995729749016261767e-01 6.995729749016261767e-01
6.584368187644386028e-01 6.584368187644386028e-01 6.584368187644386028e-01 6.584368187644386028e-01 6.584368187644386028e-01
6.233000488243117809e-01 6.233000488243117809e-01 6.233000488243117809e-01 6.233000488243117809e-01 6.233000488243117809e-01
5.988185206213243461e-01 5.988185206213243461e-01 5.988185206213243461e-01 5.988185206213243461e-01 5.988185206213243461e-01
5.852984256745695779e-01 5.852984256745695779e-01 5.852984256745695779e-01 5.852984256745695779e-01 5.852984256745695779e-01
5.796135475598899189e-01 5.796135475598899189e-01 5.796135475598899189e-01 5.796135475598899189e-01 5.796135475598899189e-01
5.778344115453371010e-01 5.778344115453371010e-01 5.778344115453371010e-01 5.778344115453371010e-01 5.778344115453371010e-01
5.776208178589474773e-01 5.776208178589474773e-01 5.776208178589474773e-01 5.776208178589474773e-01 5.776208178589474773e-01
5.787333103309363347e-01 5.787333103309363347e-01 5.787333103309363347e-01 5.787333103309363347e-01 5.787333103309363347e-01
5.815567835671200392e-01 5.815567835671200392e-01 5.815567835671200392e-01 5.815567835671200392e-01 5.815567835671200392e-01
5.855999518045015284e-01 5.855999518045015284e-01 5.855999518045015284e-01 5.855999518045015284e-01 5.855999518045015284e-01
5.898318654599130628e-01 5.898318654599130628e-01 5.898318654599130628e-01 5.898318654599130628e-01 5.898318654599130628e-01
5.928932735433285472e-01 5.928932735433285472e-01 5.928932735433285472e-01 5.928932735433285472e-01 5.928932735433285472e-01
5.940314256557052142e-01 5.940314256557052142e-01 5.940314256557052142e-01 5.940314256557052142e-01 5.940314256557052142e-01
5.935371986691064805e-01 5.935371986691064805e-01 5.935371986691064805e-01 5.935371986691064805e-01 5.935371986691064805e-01
5.925097988385614745e-01 5.925097988385614745e-01 5.925097988385614745e-01 5.925097988385614745e-01 5.925097988385614745e-01
5.920617186360592754e-01 5.920617186360592754e-01 5.920617186360592754e-01 5.920617186360592754e-01 5.920617186360592754e-01
5.925324158338439728e-01 5.925324158338439728e-01 5.925324158338439728e-01 5.925324158338439728e-01 5.925324158338439728e-01
5.935697549717328103e-01 5.935697549717328103e-01 5.935697549717328103e-01 5.935697549717328103e-01 5.935697549717328103e-01
5.952578144761345724e-01 5.952578144761345724e-01 5.952578144761345724e-01 5.952578144761345724e-01 5.952578144761345724e-01
6.002606329797171014e-01 6.002606329797171014e-01 6.002606329797171014e-01 6.002606329797171014e-01 6.002606329797171014e-01
6.148389598940835477e-01 6.148389598940835477e-01 6.148389598940835477e-01 6.148389598940835477e-01 6.148389598940835477e-01
6.452680479058386931e-01 6.452680479058386931e-01 6.452680479058386931e-01 6.452680479058386931e-01 6.452680479058386931e-01
6.915568221072914135e-01 6.915568221072914135e-01 6.915568221072914135e-01 6.915568221072914135e-01 6.915568221072914135e-01
7.422693994487944424e-01 7.422693994487944424e-01 7.422693994487944424e-01 7.422693994487944424e-01 7.422693994487944424e-01
7.748460877973500915e-01 7.748460877973500915e-01 7.748460877973500915e-01 7.748460877973500915e-01 7.748460877973500915e-01
7.636048326129364350e-01 7.636048326129364350e-01 7.636048326129364350e-01 7.636048326129364350e-01 7.636048326129364350e-01
6.919183897673005790e-01 6.919183897673005790e-01 6.919183897673005790e-01 6.919183897673005790e-01 6.919183897673005790e-01
5.622109360373117593e-01 5.622109360373117593e-01 5.622109360373117593e-01 5.622109360373117593e-01 5.622109360373117593e-01
3.976513011060420766e-01 3.976513011060420766e-01 3.976513011060420766e-01 3.976513011060420766e-01 3.976513011060420766e-01
2.333562748774270501e-01 2.333562748774270501e-01 2.333562748774270501e-01 2.333562748774270501e-01 2.333562748774270501e-01
1.021752681229577547e-01 1.021752681229577547e-01 1.021752681229577547e-01 1.021752681229577547e-01 1.021752681229577547e-01
2.343587250181088100e-02 2.343587250181088100e-02 2.343587250181088100e-02 2.343587250181088100e-02 2.343587250181088100e-02
0.000000000000000000e+00 0.000000000000000000e+00 0.000000000000000000e+00 0.000000000000000000e+00 0.000000000000000000e+00
2.231465778052021606e-02 2.231465778052021606e-02 2.231465778052021606e-02 2.231465778052021606e-02 2.231465778052021606e-02
7.563539050625760207e-02 7.563539050625760207e-02 7.563539050625760207e-02 7.563539050625760207e-02 7.563539050625760207e-02
1.450338656542366489e-01 1.450338656542366489e-01 1.450338656542366489e-01 1.450338656542366489e-01 1.450338656542366489e-01
2.168168617712129542e-01 2.168168617712129542e-01 2.168168617712129542e-01 2.168168617712129542e-01 2.168168617712129542e-01
2.795015376514147221e-01 2.795015376514147221e-01 2.795015376514147221e-01 2.795015376514147221e-01 2.795015376514147221e-01
3.251904036596123815e-01 3.251904036596123815e-01 3.251904036596123815e-01 3.251904036596123815e-01 3.251904036596123815e-01
3.515600959934246372e-01 3.515600959934246372e-01 3.515600959934246372e-01 3.515600959934246372e-01 3.515600959934246372e-01
3.621792316753149055e-01 3.621792316753149055e-01 3.621792316753149055e-01 3.621792316753149055e-01 3.621792316753149055e-01
3.639430530428378052e-01 3.639430530428378052e-01 3.639430530428378052e-01 3.639430530428378052e-01 3.639430530428378052e-01
3.640387949421501901e-01 3.640387949421501901e-01 3.640387949421501901e-01 3.640387949421501901e-01 3.640387949421501901e-01
3.683226364073582393e-01 3.683226364073582393e-01 3.683226364073582393e-01 3.683226364073582393e-01 3.683226364073582393e-01
3.807066076718065295e-01 3.807066076718065295e-01 3.807066076718065295e-01 3.807066076718065295e-01 3.807066076718065295e-01
4.028552384510826756e-01 4.028552384510826756e-01 4.028552384510826756e-01 4.028552384510826756e-01 4.028552384510826756e-01
4.343959061412951406e-01 4.343959061412951406e-01 4.343959061412951406e-01 4.343959061412951406e-01 4.343959061412951406e-01
4.733845633631857397e-01 4.733845633631857397e-01 4.733845633631857397e-01 4.733845633631857397e-01 4.733845633631857397e-01
5.167258258296634210e-01 5.167258258296634210e-01 5.167258258296634210e-01 5.167258258296634210e-01 5.167258258296634210e-01
5.611095999307088578e-01 5.611095999307088578e-01 5.611095999307088578e-01 5.611095999307088578e-01 5.611095999307088578e-01
6.035048026124556486e-01 6.035048026124556486e-01 6.035048026124556486e-01 6.035048026124556486e-01 6.035048026124556486e-01
6.414763035756556597e-01 6.414763035756556597e-01 6.414763035756556597e-01 6.414763035756556597e-01 6.414763035756556597e-01
6.734804675369037152e-01 6.734804675369037152e-01 6.734804675369037152e-01 6.734804675369037152e-01 6.734804675369037152e-01
6.991440633632871604e-01 6.991440633632871604e-01 6.991440633632871604e-01 6.991440633632871604e-01 6.991440633632871604e-01
7.194269441640139817e-01 7.194269441640139817e-01 7.194269441640139817e-01 7.194269441640139817e-01 7.194269441640139817e-01
7.360588536814282046e-01 7.360588536814282046e-01 7.360588536814282046e-01 7.360588536814282046e-01 7.360588536814282046e-01
7.507269386263999422e-01 7.507269386263999422e-01 7.507269386263999422e-01 7.507269386263999422e-01 7.507269386263999422e-01
7.645059626716127488e-01 7.645059626716127488e-01 7.645059626716127488e-01 7.645059626716127488e-01 7.645059626716127488e-01
7.776826444074864675e-01 7.776826444074864675e-01 7.776826444074864675e-01 7.776826444074864675e-01 7.776826444074864675e-01
7.901584021326102381e-01 7.901584021326102381e-01 7.901584021326102381e-01 7.901584021326102381e-01 7.901584021326102381e-01
8.021255310176369502e-01 8.021255310176369502e-01 8.021255310176369502e-01 8.021255310176369502e-01 8.021255310176369502e-01
8.141978340018024562e-01 8.141978340018024562e-01 8.141978340018024562e-01 8.141978340018024562e-01 8.141978340018024562e-01
8.270783649474301447e-01 8.270783649474301447e-01 8.270783649474301447e-01 8.270783649474301447e-01 8.270783649474301447e-01
8.412739271075541092e-01 8.412739271075541092e-01 8.412739271075541092e-01 8.412739271075541092e-01 8.412739271075541092e-01
8.570543016815076465e-01 8.570543016815076465e-01 8.570543016815076465e-01 8.570543016815076465e-01 8.570543016815076465e-01
8.744186772972629695e-01 8.744186772972629695e-01 8.744186772972629695e-01 8.744186772972629695e-01 8.744186772972629695e-01
8.930380425974371317e-01 8.930380425974371317e-01 8.930380425974371317e-01 8.930380425974371317e-01 8.930380425974371317e-01
9.120811469392714477e-01 9.120811469392714477e-01 9.120811469392714477e-01 9.120811469392714477e-01 9.120811469392714477e-01
9.303473625642276756e-01 9.303473625642276756e-01 9.303473625642276756e-01 9.303473625642276756e-01 9.303473625642276756e-01
9.466575630725116985e-01 9.466575630725116985e-01 9.466575630725116985e-01 9.466575630725116985e-01 9.466575630725116985e-01
9.604926732091649821e-01 9.604926732091649821e-01 9.604926732091649821e-01 9.604926732091649821e-01 9.604926732091649821e-01
9.721506693514967434e-01 9.721506693514967434e-01 9.721506693514967434e-01 9.721506693514967434e-01 9.721506693514967434e-01
9.823238546824584194e-01 9.823238546824584194e-01 9.823238546824584194e-01 9.823238546824584194e-01 9.823238546824584194e-01
9.910536091754816868e-01 9.910536091754816868e-01 9.910536091754816868e-01 9.910536091754816868e-01 9.910536091754816868e-01
9.973827166804498656e-01 9.973827166804498656e-01 9.973827166804498656e-01 9.973827166804498656e-01 9.973827166804498656e-01
1.000000000000000000e+00 1.000000000000000000e+00 1.000000000000000000e+00 1.000000000000000000e+00 1.000000000000000000e+00
9.977415459598643066e-01 9.977415459598643066e-01 9.977415459598643066e-01 9.977415459598643066e-01 9.977415459598643066e-01
9.903517723712003118e-01 9.903517723712003118e-01 9.903517723712003118e-01 9.903517723712003118e-01 9.903517723712003118e-01
9.783706473186892794e-01 9.783706473186892794e-01 9.783706473186892794e-01 9.783706473186892794e-01 9.783706473186892794e-01
9.625042673097601309e-01 9.625042673097601309e-01 9.625042673097601309e-01 9.625042673097601309e-01 9.625042673097601309e-01
9.431670406077501401e-01 9.431670406077501401e-01 9.431670406077501401e-01 9.431670406077501401e-01 9.431670406077501401e-01
9.208861561878983748e-01 9.208861561878983748e-01 9.208861561878983748e-01 9.208861561878983748e-01 9.208861561878983748e-01
8.964153786642828914e-01 8.964153786642828914e-01 8.964153786642828914e-01 8.964153786642828914e-01 8.964153786642828914e-01
8.707819050244415271e-01 8.707819050244415271e-01 8.707819050244415271e-01 8.707819050244415271e-01 8.707819050244415271e-01
8.453362640090987812e-01 8.453362640090987812e-01 8.453362640090987812e-01 8.453362640090987812e-01 8.453362640090987812e-01
8.208086904435182296e-01 8.208086904435182296e-01 8.208086904435182296e-01 8.208086904435182296e-01 8.208086904435182296e-01
7.968290972613962797e-01 7.968290972613962797e-01 7.968290972613962797e-01 7.968290972613962797e-01 7.968290972613962797e-01
7.725109591005616672e-01 7.725109591005616672e-01 7.725109591005616672e-01 7.725109591005616672e-01 7.725109591005616672e-01
7.475734398177983353e-01 7.475734398177983353e-01 7.475734398177983353e-01 7.475734398177983353e-01 7.475734398177983353e-01
7.231737587681424939e-01 7.231737587681424939e-01 7.231737587681424939e-01 7.231737587681424939e-01 7.231737587681424939e-01
7.011963274867893947e-01 7.011963274867893947e-01 7.011963274867893947e-01 7.011963274867893947e-01 7.011963274867893947e-01
6.826859903028872356e-01 6.826859903028872356e-01 6.826859903028872356e-01 6.826859903028872356e-01 6.826859903028872356e-01
