7.849621791883009125e-01 7.579392498321243510e-01 7.579392498321243510e-01 7.579392498321243510e-01 7.579392498321243510e-01
7.985626789633126776e-01 7.804261280702602388e-01 7.804261280702602388e-01 7.804261280702602388e-01 7.804261280702602388e-01
7.995361702196910336e-01 7.879900832016825118e-01 7.879900832016825118e-01 7.879900832016825118e-01 7.879900832016825118e-01
7.878350514625050982e-01 7.795883456644810972e-01 7.795883456644810972e-01 7.795883456644810972e-01 7.795883456644810972e-01
7.645594461301612466e-01 7.574636147797867425e-01 7.574636147797867425e-01 7.574636147797867425e-01 7.574636147797867425e-01
7.323345563255877488e-01 7.263306964669151711e-01 7.263306964669151711e-01 7.263306964669151711e-01 7.263306964669151711e-01
6.954754372217651914e-01 6.918215191118858298e-01 6.918215191118858298e-01 6.918215191118858298e-01 6.918215191118858298e-01
6.593308491048884834e-01 6.591614819507440881e-01 6.591614819507440881e-01 6.591614819507440881e-01 6.591614819507440881e-01
6.290081882708289385e-01 6.322005538402363234e-01 6.322005538402363234e-01 6.322005538402363234e-01 6.322005538402363234e-01
6.076231149604581772e-01 6.128501918803401782e-01 6.128501918803401782e-01 6.128501918803401782e-01 6.128501918803401782e-01
5.953700019447448755e-01 6.009178722961429076e-01 6.009178722961429076e-01 6.009178722961429076e-01 6.009178722961429076e-01
5.901414659470296531e-01 5.945153421689586271e-01 5.945153421689586271e-01 5.945153421689586271e-01 5.945153421689586271e-01
5.891093882353515276e-01 5.909612519557628785e-01 5.909612519557628785e-01 5.909612519557628785e-01 5.909612519557628785e-01
5.900834897673059576e-01 5.882179908198584828e-01 5.882179908198584828e-01 5.882179908198584828e-01 5.882179908198584828e-01
5.920029081665449944e-01 5.856586405531472028e-01 5.856586405531472028e-01 5.856586405531472028e-01 5.856586405531472028e-01
5.942382458889803321e-01 5.837317815511762209e-01 5.837317815511762209e-01 5.837317815511762209e-01 5.837317815511762209e-01
5.959883128158685039e-01 5.830248139840352728e-01 5.830248139840352728e-01 5.830248139840352728e-01 5.830248139840352728e-01
5.963425777877591205e-01 5.835824236331648152e-01 5.835824236331648152e-01 5.835824236331648152e-01 5.835824236331648152e-01
5.949224665223161734e-01 5.848390972418334721e-01 5.848390972418334721e-01 5.848390972418334721e-01 5.848390972418334721e-01
5.923954170745341363e-01 5.860687161937117029e-01 5.860687161937117029e-01 5.860687161937117029e-01 5.860687161937117029e-01
5.901732002769837226e-01 5.867988879421447423e-01 5.867988879421447423e-01 5.867988879421447423e-01 5.867988879421447423e-01
5.894593812782099596e-01 5.870480542382031652e-01 5.870480542382031652e-01 5.870480542382031652e-01 5.870480542382031652e-01
5.905200402293659945e-01 5.873324827835614270e-01 5.873324827835614270e-01 5.873324827835614270e-01 5.873324827835614270e-01
5.925445277402797695e-01 5.879404525990760133e-01 5.879404525990760133e-01 5.879404525990760133e-01 5.879404525990760133e-01
5.943983415150945193e-01 5.888099507635644603e-01 5.888099507635644603e-01 5.888099507635644603e-01 5.888099507635644603e-01
5.957270131567277138e-01 5.898562668160650668e-01 5.898562668160650668e-01 5.898562668160650668e-01 5.898562668160650668e-01
5.981718788269364540e-01 5.921579392093008209e-01 5.921579392093008209e-01 5.921579392093008209e-01 5.921579392093008209e-01
6.063330941053075573e-01 5.997255421596161540e-01 5.997255421596161540e-01 5.997255421596161540e-01 5.997255421596161540e-01
6.265393184279626215e-01 6.190035557114660358e-01 6.190035557114660358e-01 6.190035557114660358e-01 6.190035557114660358e-01
6.628499015015220097e-01 6.548149030830250350e-01 6.548149030830250350e-01 6.548149030830250350e-01 6.548149030830250350e-01
7.116173279205958435e-01 7.042664585788644960e-01 7.042664585788644960e-01 7.042664585788644960e-01 7.042664585788644960e-01
7.578379726482623591e-01 7.521389138072073210e-01 7.521389138072073210e-01 7.521389138072073210e-01 7.521389138072073210e-01
7.773709612979503580e-01 7.731911859373339357e-01 7.731911859373339357e-01 7.731911859373339357e-01 7.731911859373339357e-01
7.462767087105853792e-01 7.423284088791559654e-01 7.423284088791559654e-01 7.423284088791559654e-01 7.423284088791559654e-01
6.531443838779839028e-01 6.478471636840174019e-01 6.478471636840174019e-01 6.478471636840174019e-01 6.478471636840174019e-01
5.074904207077081120e-01 4.999376324297584717e-01 4.999376324297584717e-01 4.999376324297584717e-01 4.999376324297584717e-01
3.381364055419531778e-01 3.287433638828032856e-01 3.287433638828032856e-01 3.287433638828032856e-01 3.287433638828032856e-01
1.814016687375351322e-01 1.718175389361602245e-01 1.718175389361602245e-01 1.718175389361602245e-01 1.718175389361602245e-01
6.648810003311762806e-02 5.884296656439601259e-02 5.884296656439601259e-02 5.884296656439601259e-02 5.884296656439601259e-02
6.761955095109414317e-03 2.728771188634693430e-03 2.728771188634693430e-03 2.728771188634693430e-03 2.728771188634693430e-03
0.000000000000000000e+00 0.000000000000000000e+00 0.000000000000000000e+00 0.000000000000000000e+00 0.000000000000000000e+00
3.451047354943598267e-02 3.734880170669286487e-02 3.734880170669286487e-02 3.734880170669286487e-02 3.734880170669286487e-02
9.560841626978411334e-02 9.909685070622280267e-02 9.909685070622280267e-02 9.909685070622280267e-02 9.909685070622280267e-02
1.687580810657527131e-01 1.707533891024045070e-01 1.707533891024045070e-01 1.707533891024045070e-01 1.707533891024045070e-01
2.403322177495803291e-01 2.399935514668234404e-01 2.399935514668234404e-01 2.399935514668234404e-01 2.399935514668234404e-01
2.990481531840518126e-01 2.974246094629893755e-01 2.974246094629893755e-01 2.974246094629893755e-01 2.974246094629893755e-01
3.383990274648420171e-01 3.373908225537751715e-01 3.373908225537751715e-01 3.373908225537751715e-01 3.373908225537751715e-01
3.584817726959452222e-01 3.593652835657348832e-01 3.593652835657348832e-01 3.593652835657348832e-01 3.593652835657348832e-01
3.653797175319153934e-01 3.673989967079447916e-01 3.673989967079447916e-01 3.673989967079447916e-01 3.673989967079447916e-01
3.678141068047354190e-01 3.680099050442343644e-01 3.680099050442343644e-01 3.680099050442343644e-01 3.680099050442343644e-01
3.738917395539129718e-01 3.682393123212885366e-01 3.682393123212885366e-01 3.682393123212885366e-01 3.682393123212885366e-01
3.888731912449052142e-01 3.745486204100939021e-01 3.745486204100939021e-01 3.745486204100939021e-01 3.745486204100939021e-01
4.145374151818662090e-01 3.911113394375529406e-01 3.911113394375529406e-01 3.911113394375529406e-01 3.911113394375529406e-01
4.497114617076486964e-01 4.187950423304050429e-01 4.187950423304050429e-01 4.187950423304050429e-01 4.187950423304050429e-01
4.912309502478939272e-01 4.553951292092917047e-01 4.553951292092917047e-01 4.553951292092917047e-01 4.553951292092917047e-01
5.353039335108827901e-01 4.968898797445837623e-01 4.968898797445837623e-01 4.968898797445837623e-01 4.968898797445837623e-01
5.785914921075093753e-01 5.390306995371627607e-01 5.390306995371627607e-01 5.390306995371627607e-01 5.390306995371627607e-01
6.186165174746308670e-01 5.788782571856205816e-01 5.788782571856205816e-01 5.788782571856205816e-01 5.788782571856205816e-01
6.539412003550990615e-01 6.150102073065609742e-01 6.150102073065609742e-01 6.150102073065609742e-01 6.150102073065609742e-01
6.841332622158862176e-01 6.472149764041847941e-01 6.472149764041847941e-01 6.472149764041847941e-01 6.472149764041847941e-01
7.094780068887907021e-01 6.760281858859604753e-01 6.760281858859604753e-01 6.760281858859604753e-01 6.760281858859604753e-01
7.308287013417111844e-01 7.018955789549626845e-01 7.018955789549626845e-01 7.018955789549626845e-01 7.018955789549626845e-01
7.492748909030695348e-01 7.249801928500519965e-01 7.249801928500519965e-01 7.249801928500519965e-01 7.249801928500519965e-01
7.657988141125006143e-01 7.451575964156531562e-01 7.451575964156531562e-01 7.451575964156531562e-01 7.451575964156531562e-01
7.808392591091766199e-01 7.622450947222039197e-01 7.622450947222039197e-01 7.622450947222039197e-01 7.622450947222039197e-01
7.943007177654475282e-01 7.765318787452840654e-01 7.765318787452840654e-01 7.765318787452840654e-01 7.765318787452840654e-01
8.059618634724029507e-01 7.887985817280143142e-01 7.887985817280143142e-01 7.887985817280143142e-01 7.887985817280143142e-01
8.161227483882621536e-01 7.999511800238141568e-01 7.999511800238141568e-01 7.999511800238141568e-01 7.999511800238141568e-01
8.257392674902945817e-01 8.106988704224812325e-01 8.106988704224812325e-01 8.106988704224812325e-01 8.106988704224812325e-01
8.362950007038512101e-01 8.213584051978987111e-01 8.213584051978987111e-01 8.213584051978987111e-01 8.213584051978987111e-01
8.491158734304729006e-01 8.322927423299287808e-01 8.322927423299287808e-01 8.322927423299287808e-01 8.322927423299287808e-01
8.648361654188565506e-01 8.440869514377017380e-01 8.440869514377017380e-01 8.440869514377017380e-01 8.440869514377017380e-01
8.827898625903513041e-01 8.575222737341536838e-01 8.575222737341536838e-01 8.575222737341536838e-01 8.575222737341536838e-01
9.013574969913413781e-01 8.730265173128017864e-01 8.730265173128017864e-01 8.730265173128017864e-01 8.730265173128017864e-01
9.189779836983188455e-01 8.903554809644144141e-01 8.903554809644144141e-01 8.903554809644144141e-01 8.903554809644144141e-01
9.348766795800979024e-01 9.085487750370836446e-01 9.085487750370836446e-01 9.085487750370836446e-01 9.085487750370836446e-01
9.494118163998135351e-01 9.264747650475315677e-01 9.264747650475315677e-01 9.264747650475315677e-01 9.264747650475315677e-01
9.633924161461016045e-01 9.434336777381009398e-01 9.434336777381009398e-01 9.434336777381009398e-01 9.434336777381009398e-01
9.769169366118964914e-01 9.593033111758734188e-01 9.593033111758734188e-01 9.593033111758734188e-01 9.593033111758734188e-01
9.888000192033381541e-01 9.739138391257150529e-01 9.739138391257150529e-01 9.739138391257150529e-01 9.739138391257150529e-01
9.969775084970702306e-01 9.865906177490100237e-01 9.865906177490100237e-01 9.865906177490100237e-01 9.865906177490100237e-01
1.000000000000000000e+00 9.958175729824698674e-01 9.958175729824698674e-01 9.958175729824698674e-01 9.958175729824698674e-01
9.978021942254911014e-01 1.000000000000000000e+00 1.000000000000000000e+00 1.000000000000000000e+00 1.000000000000000000e+00
9.915529723268505791e-01 9.981019182359633923e-01 9.981019182359633923e-01 9.981019182359633923e-01 9.981019182359633923e-01
9.824895663219016528e-01 9.902244533363407930e-01 9.902244533363407930e-01 9.902244533363407930e-01 9.902244533363407930e-01
9.707069757753143957e-01 9.775752360113492134e-01 9.775752360113492134e-01 9.775752360113492134e-01 9.775752360113492134e-01
9.553436949989136950e-01 9.611189117016051275e-01 9.611189117016051275e-01 9.611189117016051275e-01 9.611189117016051275e-01
9.355961944842480227e-01 9.413163215272688511e-01 9.413163215272688511e-01 9.413163215272688511e-01 9.413163215272688511e-01
9.118648150091989146e-01 9.184286898524062215e-01 9.184286898524062215e-01 9.184286898524062215e-01 9.184286898524062215e-01
8.857185750797630375e-01 8.929018612083947648e-01 8.929018612083947648e-01 8.929018612083947648e-01 8.929018612083947648e-01
8.592478719690663791e-01 8.656234715258857015e-01 8.656234715258857015e-01 8.656234715258857015e-01 8.656234715258857015e-01
8.342690892165932626e-01 8.382382818124511914e-01 8.382382818124511914e-01 8.382382818124511914e-01 8.382382818124511914e-01
8.114091832641280311e-01 8.122181869914522068e-01 8.122181869914522068e-01 8.122181869914522068e-01 8.122181869914522068e-01
7.898742872998397724e-01 7.880060930734911206e-01 7.880060930734911206e-01 7.880060930734911206e-01 7.880060930734911206e-01
7.682972823208047419e-01 7.648962484310578569e-01 7.648962484310578569e-01 7.648962484310578569e-01 7.648962484310578569e-01
7.457303086448383578e-01 7.421760111120669912e-01 7.421760111120669912e-01 7.421760111120669912e-01 7.421760111120669912e-01
7.223648910902207287e-01 7.198076869879563855e-01 7.198076869879563855e-01 7.198076869879563855e-01 7.198076869879563855e-01
6.993365490787686323e-01 6.985075658297049683e-01 6.985075658297049683e-01 6.985075658297049683e-01 6.985075658297049683e-01
6.779736491143274479e-01 6.789678212722761730e-01 6.789678212722761730e-01 6.789678212722761730e-01 6.789678212722761730e-01
6.588739561236272024e-01 6.612891736484400873e-01 6.612891736484400873e-01 6.612891736484400873e-01 6.612891736484400873e-01
