2.447903901338577271e-01
2.361430823802947998e-01
2.226204872131347656e-01
2.151908725500106812e-01
2.192856967449188232e-01
2.301793098449707031e-01
2.369151860475540161e-01
2.317185401916503906e-01
2.169075906276702881e-01
2.033117711544036865e-01
2.019720971584320068e-01
2.154119908809661865e-01
2.356904149055480957e-01
2.507705688476562500e-01
2.541573345661163330e-01
2.492709457874298096e-01
2.457073181867599487e-01
2.509752810001373291e-01
2.638911902904510498e-01
2.758533358573913574e-01
2.777766585350036621e-01
2.678955793380737305e-01
2.531269490718841553e-01
2.434906214475631714e-01
2.439664751291275024e-01
2.501737177371978760e-01
2.517636120319366455e-01
2.411926537752151489e-01
2.205037176609039307e-01
2.000577747821807861e-01
1.903895735740661621e-01
1.938045024871826172e-01
2.024603337049484253e-01
2.047708481550216675e-01
1.953179687261581421e-01
1.788574159145355225e-01
1.661822348833084106e-01
1.651977151632308960e-01
1.744449436664581299e-01
1.841243952512741089e-01
1.839866489171981812e-01
1.718302816152572632e-01
1.553195118904113770e-01
1.456825435161590576e-01
1.486108452081680298e-01
1.593412756919860840e-01
1.667234152555465698e-01
1.620661765336990356e-01
1.463418453931808472e-01
1.294279694557189941e-01
1.220210492610931396e-01
1.271230876445770264e-01
1.375651508569717407e-01
1.414584964513778687e-01
1.309168189764022827e-01
1.071893498301506042e-01
7.831092923879623413e-02
5.262536182999610901e-02
3.322814404964447021e-02
1.856476813554763794e-02
8.801790885627269745e-03
1.214575022459030151e-02
4.418403655290603638e-02
1.201115548610687256e-01
2.443840652704238892e-01
4.042299985885620117e-01
5.733830332756042480e-01
7.241764664649963379e-01
8.400496244430541992e-01
9.198257327079772949e-01
9.713838696479797363e-01
9.997608661651611328e-01
1.000000000000000000e+00
9.598116278648376465e-01
8.697387576103210449e-01
7.332764267921447754e-01
5.687553882598876953e-01
4.024056196212768555e-01
2.571191191673278809e-01
1.451939791440963745e-01
6.799180805683135986e-02
2.140842191874980927e-02
3.611090069171041250e-04
0.000000000000000000e+00
1.415856275707483292e-02
3.355352953076362610e-02
4.800320044159889221e-02
5.210719257593154907e-02
4.881022125482559204e-02
4.681623727083206177e-02
5.424214527010917664e-02
7.224336266517639160e-02
9.343422204256057739e-02
1.072194427251815796e-01
1.079046502709388733e-01
9.932879358530044556e-02
9.185799211263656616e-02
9.444497525691986084e-02
1.073652431368827820e-01
1.220492124557495117e-01
1.280546635389328003e-01
1.222162470221519470e-01
1.112988144159317017e-01
1.062075644731521606e-01
1.129614636301994324e-01
1.277521252632141113e-01
1.399368196725845337e-01
1.406342536211013794e-01
1.298293173313140869e-01
1.159433498978614807e-01
1.091847866773605347e-01
1.136463508009910583e-01
1.246530935168266296e-01
1.327741891145706177e-01
1.319772899150848389e-01
1.243825852870941162e-01
1.183243542909622192e-01
1.213728561997413635e-01
1.337358504533767700e-01
1.475556790828704834e-01
1.528704464435577393e-01
1.458175629377365112e-01
1.317397803068161011e-01
1.208072155714035034e-01
1.201498508453369141e-01
1.281650513410568237e-01
1.359750777482986450e-01
1.350325644016265869e-01
1.245950013399124146e-01
1.123256608843803406e-01
1.079999133944511414e-01
1.155732274055480957e-01
1.295346617698669434e-01
1.390639841556549072e-01
1.367347985506057739e-01
1.246400550007820129e-01
1.127410009503364563e-01
1.109892055392265320e-01
1.211742833256721497e-01
1.353983432054519653e-01
1.424002200365066528e-01
1.368575841188430786e-01
1.237168461084365845e-01
1.140335276722908020e-01
1.159489825367927551e-01
1.278110295534133911e-01
1.395340412855148315e-01
1.410013139247894287e-01
1.305320560932159424e-01
1.158194392919540405e-01
1.079830229282379150e-01
1.124175488948822021e-01
1.253048330545425415e-01
1.375344097614288330e-01
1.426639705896377563e-01
1.418524384498596191e-01
1.416940838098526001e-01
1.467856615781784058e-01
1.549757868051528931e-01
1.597006171941757202e-01
1.561608165502548218e-01
1.465000212192535400e-01
1.387176811695098877e-01
1.397947221994400024e-01
1.492078602313995361e-01
1.596875786781311035e-01
1.632006764411926270e-01
1.581255197525024414e-01
1.506267040967941284e-01
1.492608040571212769e-01
1.575872302055358887e-01
1.706563532352447510e-01
1.784457862377166748e-01
1.743139475584030151e-01
1.606735587120056152e-01
1.472376883029937744e-01
1.434558629989624023e-01
1.512555927038192749e-01
1.633463054895401001e-01
1.694269031286239624e-01
1.647561490535736084e-01
1.539944857358932495e-01
1.471367925405502319e-01
1.513561755418777466e-01
1.649172306060791016e-01
1.782988607883453369e-01
1.817767024040222168e-01
1.731582134962081909e-01
1.596573293209075928e-01
1.521580517292022705e-01
1.566244363784790039e-01
1.691686213016510010e-01
1.794037520885467529e-01
1.791897267103195190e-01
1.698295325040817261e-01
1.606920659542083740e-01
1.614796072244644165e-01
1.737759858369827271e-01
1.892554014921188354e-01
2.329959422349929810e-01
2.219929397106170654e-01
2.120987921953201294e-01
2.131509035825729370e-01
2.270978540182113647e-01
2.460416257381439209e-01
2.583820819854736328e-01
2.576235830783843994e-01
2.471976131200790405e-01
2.372293174266815186e-01
2.366368323564529419e-01
2.461045235395431519e-01
2.580583095550537109e-01
2.633271515369415283e-01
2.591925263404846191e-01
2.514971792697906494e-01
2.494683116674423218e-01
2.579213976860046387e-01
2.728973329067230225e-01
2.841322720050811768e-01
2.834182083606719971e-01
2.714756727218627930e-01
2.571948766708374023e-01
2.508999109268188477e-01
2.561586797237396240e-01
2.671959102153778076e-01
2.735186517238616943e-01
2.685504853725433350e-01
2.547413408756256104e-01
2.412980198860168457e-01
2.366707623004913330e-01
2.411512136459350586e-01
2.463380843400955200e-01
2.420521676540374756e-01
2.252455055713653564e-01
2.031673043966293335e-01
1.880037337541580200e-01
1.874583810567855835e-01
1.984148472547531128e-01
2.092102468013763428e-01
2.091417908668518066e-01
1.968783289194107056e-01
1.807902306318283081e-01
1.714211702346801758e-01
1.729318648576736450e-01
1.801627725362777710e-01
1.836643666028976440e-01
1.782251745462417603e-01
1.673439145088195801e-01
1.599815040826797485e-01
1.626166701316833496e-01
1.734330803155899048e-01
1.833649128675460815e-01
1.831855326890945435e-01
1.708702743053436279e-01
1.526121944189071655e-01
1.375166177749633789e-01
1.298606097698211670e-01
1.247701048851013184e-01
1.119579970836639404e-01
8.444073796272277832e-02
4.600799828767776489e-02
1.151036843657493591e-02
0.000000000000000000e+00
2.522944100201129913e-02
8.976315706968307495e-02
1.866032034158706665e-01
3.058173358440399170e-01
4.398584663867950439e-01
5.827787518501281738e-01
7.259484529495239258e-01
8.549954891204833984e-01
9.514913558959960938e-01
1.000000000000000000e+00
9.957654476165771484e-01
9.458721280097961426e-01
8.627882599830627441e-01
7.564941644668579102e-01
6.312372684478759766e-01
4.900342524051666260e-01
3.419891297817230225e-01
2.050900459289550781e-01
1.003305390477180481e-01
4.079950973391532898e-02
2.426649257540702820e-02
3.446865826845169067e-02
5.069905892014503479e-02
5.884938314557075500e-02
5.725567415356636047e-02
5.405610054731369019e-02
5.919013172388076782e-02
7.563368231058120728e-02
9.670360386371612549e-02
1.111994907259941101e-01
1.126881241798400879e-01
1.046308651566505432e-01
9.729533642530441284e-02
9.956408292055130005e-02
1.114656329154968262e-01
1.243601590394973755e-01
1.284721046686172485e-01
1.213704347610473633e-01
1.097440347075462341e-01
1.040621027350425720e-01
1.104174256324768066e-01
1.258656084537506104e-01
1.410026103258132935e-01
1.474661529064178467e-01
1.442764848470687866e-01
1.378548145294189453e-01
1.361952126026153564e-01
1.419615000486373901e-01
1.505503058433532715e-01
1.538875252008438110e-01
1.478412747383117676e-01
1.361413300037384033e-01
1.273705959320068359e-01
1.280749142169952393e-01
1.372971683740615845e-01
1.470622122287750244e-01
1.490594148635864258e-01
1.418249011039733887e-01
1.319361627101898193e-01
1.287268400192260742e-01
1.367895007133483887e-01
1.519011259078979492e-01
1.640072762966156006e-01
1.649163514375686646e-01
1.546707898378372192e-01
1.412780582904815674e-01
1.345899403095245361e-01
1.386966258287429810e-01
1.488052755594253540e-01
1.554136872291564941e-01
1.522700935602188110e-01
1.416822969913482666e-01
1.324247717857360840e-01
1.325325518846511841e-01
1.423519402742385864e-01
1.539223492145538330e-01
1.573374867439270020e-01
1.490669250488281250e-01
1.350009441375732422e-01
1.259243041276931763e-01
1.287277340888977051e-01
1.407944113016128540e-01
1.519059389829635620e-01
1.525503545999526978e-01
1.418161988258361816e-01
1.277918070554733276e-01
1.208564639091491699e-01
1.251476258039474487e-01
1.352337598800659180e-01
1.411608308553695679e-01
1.371177881956100464e-01
1.264292597770690918e-01
1.184159889817237854e-01
1.207411810755729675e-01
1.330842077732086182e-01
1.473891586065292358e-01
1.545873284339904785e-01
1.519641727209091187e-01
1.450926363468170166e-01
1.431638747453689575e-01
1.518831253051757812e-01
1.685949116945266724e-01
1.840456575155258179e-01
1.893323510885238647e-01
1.827806830406188965e-01
1.711755990982055664e-01
1.645919531583786011e-01
1.683592498302459717e-01
1.789281368255615234e-01
1.870671957731246948e-01
1.858151406049728394e-01
1.765272915363311768e-01
1.674721091985702515e-01
1.668216735124588013e-01
1.755859553813934326e-01
1.867537647485733032e-01
1.909988522529602051e-01
1.845470219850540161e-01
1.721531003713607788e-01
1.631202846765518188e-01
1.642223894596099854e-01
1.742067486047744751e-01
1.847095787525177002e-01
1.870151162147521973e-01
1.794257462024688721e-01
1.685706079006195068e-01
1.641390770673751831e-01
1.710834205150604248e-01
1.852369159460067749e-01
1.965279728174209595e-01
1.975266486406326294e-01
1.896475702524185181e-01
1.819155961275100708e-01
1.835294216871261597e-01
1.960539370775222778e-01
2.160734236240386963e-01
2.263749539852142334e-01
2.328230440616607666e-01
2.275161296129226685e-01
2.122392207384109497e-01
1.974923759698867798e-01
1.944946348667144775e-01
2.061279118061065674e-01
2.243338674306869507e-01
2.362863719463348389e-01
2.345038950443267822e-01
2.227315008640289307e-01
2.124598473310470581e-01
2.136474400758743286e-01
2.266857475042343140e-01
2.420374304056167603e-01
2.475697100162506104e-01
2.385859191417694092e-01
2.214823067188262939e-01
2.088261842727661133e-01
2.099219411611557007e-01
2.238743603229522705e-01
2.406817078590393066e-01
2.495976388454437256e-01
2.476347088813781738e-01
2.410402595996856689e-01
2.396035045385360718e-01
2.479981482028961182e-01
2.613111138343811035e-01
2.691645324230194092e-01
2.648183405399322510e-01
2.510164976119995117e-01
2.381706386804580688e-01
2.357752025127410889e-01
2.444775998592376709e-01
2.550137639045715332e-01
2.555605471134185791e-01
2.414916604757308960e-01
2.193228751420974731e-01
2.012563645839691162e-01
1.957862079143524170e-01
2.012281715869903564e-01
2.073291689157485962e-01
2.035327851772308350e-01
1.877364367246627808e-01
1.676413267850875854e-01
1.543513238430023193e-01
1.537905335426330566e-01
1.621634066104888916e-01
1.694160401821136475e-01
1.678396761417388916e-01
1.583273410797119141e-01
1.491595357656478882e-01
1.487555801868438721e-01
1.582279056310653687e-01
1.699780076742172241e-01
1.737050265073776245e-01
1.649955511093139648e-01
1.490584164857864380e-01
1.365780383348464966e-01
1.355118304491043091e-01
1.445082873106002808e-01
1.536760777235031128e-01
1.520240902900695801e-01
1.357679218053817749e-01
1.106506660580635071e-01
8.658528327941894531e-02
6.959696859121322632e-02
5.748527497053146362e-02
4.398864880204200745e-02
2.804240770637989044e-02
2.061977982521057129e-02
4.190754517912864685e-02
1.100719869136810303e-01
2.289663851261138916e-01
3.836673200130462646e-01
5.474050641059875488e-01
6.952461600303649902e-01
8.140332102775573730e-01
9.027876853942871094e-01
9.651020169258117676e-01
1.000000000000000000e+00
9.994760155677795410e-01
9.541562795639038086e-01
8.615336418151855469e-01
7.306089401245117188e-01
5.797523260116577148e-01
4.293204545974731445e-01
2.942608594894409180e-01
1.817716658115386963e-01
9.421200305223464966e-02
3.355544432997703552e-02
2.267303178086876869e-03
0.000000000000000000e+00
1.941666193306446075e-02
4.583831503987312317e-02
6.350052356719970703e-02
6.513646990060806274e-02
5.628924816846847534e-02
5.017406120896339417e-02
5.759061127901077271e-02
7.849669456481933594e-02
1.020721942186355591e-01
1.154420375823974609e-01
1.134718433022499084e-01
1.021010577678680420e-01
9.321804344654083252e-02
9.552063047885894775e-02
1.080735996365547180e-01
1.215729191899299622e-01
1.264625340700149536e-01
1.210813447833061218e-01
1.126532778143882751e-01
1.111127063632011414e-01
1.205874010920524597e-01
1.356310099363327026e-01
1.455449610948562622e-01
1.435956954956054688e-01
1.329445540904998779e-01
1.237034872174263000e-01
1.247946843504905701e-01
1.365164220333099365e-01
1.503029018640518188e-01
1.557463854551315308e-01
1.493121385574340820e-01
1.371460855007171631e-01
1.301586627960205078e-01
1.352873146533966064e-01
1.498671919107437134e-01
1.632726639509201050e-01
1.654943823814392090e-01
1.552045047283172607e-01
1.408435702323913574e-01
1.336402148008346558e-01
1.384347975254058838e-01
1.496975421905517578e-01
1.562479287385940552e-01
1.511861234903335571e-01
1.379314064979553223e-01
1.272480189800262451e-01
1.282359063625335693e-01
1.406842023134231567e-01
1.551634818315505981e-01
1.607553511857986450e-01
1.538273394107818604e-01
1.408474445343017578e-01
1.327951550483703613e-01
1.366764605045318604e-01
1.496521234512329102e-01
1.612337529659271240e-01
1.614067852497100830e-01
1.485827118158340454e-01
1.307260394096374512e-01
1.192112565040588379e-01
1.202901229262351990e-01
1.303521096706390381e-01
1.393853724002838135e-01
1.395229548215866089e-01
1.312805712223052979e-01
1.226531416177749634e-01
1.223482713103294373e-01
1.322713345289230347e-01
1.456437110900878906e-01
1.525941789150238037e-01
1.486939638853073120e-01
1.389790475368499756e-01
1.338134258985519409e-01
1.405624896287918091e-01
1.570511311292648315e-01
1.729884147644042969e-01
1.780711561441421509e-01
1.705244481563568115e-01
1.581203788518905640e-01
1.517848968505859375e-01
1.570874154567718506e-01
1.698861718177795410e-01
1.798762530088424683e-01
1.792508065700531006e-01
1.689967066049575806e-01
1.578519642353057861e-01
1.553414016962051392e-01
1.640086770057678223e-01
1.771683543920516968e-01
1.840651333332061768e-01
1.790791302919387817e-01
1.664665639400482178e-01
1.567594259977340698e-01
1.581291556358337402e-01
1.695870459079742432e-01
1.816356033086776733e-01
1.841588318347930908e-01
1.749214828014373779e-01
1.616265773773193359e-01
1.554377973079681396e-01
1.625248342752456665e-01
1.789481341838836670e-01
1.937105059623718262e-01
1.977825611829757690e-01
1.911514848470687866e-01
1.957442313432693481e-01
1.880593746900558472e-01
1.796044111251831055e-01
1.796666681766510010e-01
1.906027197837829590e-01
2.053304612636566162e-01
2.126299589872360229e-01
2.064783573150634766e-01
1.913791149854660034e-01
1.789255738258361816e-01
1.790395826101303101e-01
1.923109292984008789e-01
2.097737342119216919e-01
2.202344834804534912e-01
2.194869518280029297e-01
2.131701558828353882e-01
2.114763855934143066e-01
2.200373560190200806e-01
2.350546568632125854e-01
2.460649162530899048e-01
2.445513606071472168e-01
2.309464365243911743e-01
2.142242938280105591e-01
2.047051191329956055e-01
2.061268240213394165e-01
2.129556834697723389e-01
2.152518928050994873e-01
2.071122974157333374e-01
1.916670650243759155e-01
1.781509369611740112e-01
1.742070317268371582e-01
1.796690076589584351e-01
1.863225996494293213e-01
1.847714334726333618e-01
1.720483005046844482e-01
1.542367488145828247e-01
1.418464779853820801e-01
1.418297141790390015e-01
1.518889218568801880e-01
1.622728258371353149e-01
1.633120924234390259e-01
1.528923213481903076e-01
1.378411948680877686e-01
1.282091736793518066e-01
1.290498673915863037e-01
1.364257633686065674e-01
1.410902142524719238e-01
1.364823281764984131e-01
1.245390847325325012e-01
1.136903688311576843e-01
1.121526136994361877e-01
1.209786385297775269e-01
1.326784044504165649e-01
1.366954892873764038e-01
1.272378563880920410e-01
1.070581972599029541e-01
8.425078541040420532e-02
6.568324565887451172e-02
5.188789591193199158e-02
3.828063234686851501e-02
2.203817293047904968e-02
9.221731685101985931e-03
1.484627556055784225e-02
5.570363998413085938e-02
1.402053385972976685e-01
2.629248499870300293e-01
4.071216285228729248e-01
5.534651875495910645e-01
6.880226135253906250e-01
8.041588068008422852e-01
8.990215063095092773e-01
9.674701690673828125e-01
1.000000000000000000e+00
9.860988259315490723e-01
9.208242297172546387e-01
8.088812828063964844e-01
6.642438769340515137e-01
5.063022375106811523e-01
3.540926873683929443e-01
2.219512760639190674e-01
1.184274256229400635e-01
4.747160151600837708e-02
9.260514751076698303e-03
0.000000000000000000e+00
1.127081084996461868e-02
3.096655569970607758e-02
4.672685265541076660e-02
5.177781730890274048e-02
4.828473180532455444e-02
4.502113536000251770e-02
5.008274316787719727e-02
6.435076892375946045e-02
8.086311072111129761e-02
9.027029573917388916e-02
8.877117931842803955e-02
8.111636340618133545e-02
7.645891606807708740e-02
8.125326782464981079e-02
9.405542165040969849e-02
1.067031770944595337e-01
1.109757125377655029e-01
1.051457375288009644e-01
9.534604847431182861e-02
9.066862612962722778e-02
9.612141549587249756e-02
1.086813956499099731e-01
1.197254881262779236e-01
1.218948513269424438e-01
1.149518340826034546e-01
1.058019846677780151e-01
1.028957441449165344e-01
1.094281822443008423e-01
1.207369044423103333e-01
1.278478801250457764e-01
1.251483857631683350e-01
1.149623319506645203e-01
1.053543761372566223e-01
1.036824807524681091e-01
1.105142533779144287e-01
1.191618219017982483e-01
1.213371679186820984e-01
1.143366992473602295e-01
1.031624078750610352e-01
9.652178734540939331e-02
9.974557906389236450e-02
1.102882623672485352e-01
1.197028905153274536e-01
1.205061003565788269e-01
1.123137250542640686e-01
1.020744517445564270e-01
9.835901856422424316e-02
1.042155250906944275e-01
1.146562993526458740e-01
1.205956265330314636e-01
1.165812984108924866e-01
1.052043437957763672e-01
9.488269686698913574e-02
9.325410425662994385e-02
1.009920239448547363e-01
1.112748906016349792e-01
1.153567209839820862e-01
1.097256168723106384e-01
9.889410436153411865e-02
9.154663980007171631e-02
9.345793724060058594e-02
1.023514717817306519e-01
1.093514934182167053e-01
1.064945310354232788e-01
9.365972131490707397e-02
7.913056015968322754e-02
7.320012897253036499e-02
8.017317950725555420e-02
9.495034813880920410e-02
1.068928614258766174e-01
1.085503175854682922e-01
1.012678816914558411e-01
9.349336475133895874e-02
9.370171278715133667e-02
1.035534515976905823e-01
1.166625097393989563e-01
1.239675506949424744e-01
1.213470771908760071e-01
1.131533831357955933e-01
1.085406988859176636e-01
1.140188574790954590e-01
1.277401298284530640e-01
1.406847387552261353e-01
1.438693106174468994e-01
1.358033418655395508e-01
1.238513439893722534e-01
1.182862892746925354e-01
1.241530105471611023e-01
1.370127499103546143e-01
1.465241909027099609e-01
1.449918299913406372e-01
1.337211579084396362e-01
1.216983124613761902e-01
1.183451935648918152e-01
1.258760839700698853e-01
1.377935111522674561e-01
1.443320810794830322e-01
1.407767385244369507e-01
1.311514228582382202e-01
1.246615573763847351e-01
1.281775385141372681e-01
1.403385996818542480e-01
1.525308787822723389e-01
1.558052599430084229e-01
1.482529491186141968e-01
1.365959048271179199e-01
1.306956559419631958e-01
1.357781141996383667e-01
1.481166183948516846e-01
1.580120921134948730e-01
1.581039577722549438e-01
1.494518667459487915e-01
1.407162249088287354e-01
1.409372687339782715e-01
1.520431786775588989e-01
1.162331923842430115e-01
1.361472606658935547e-01
1.569531261920928955e-01
1.806003898382186890e-01
2.042570710182189941e-01
2.206828743219375610e-01
2.233448028564453125e-01
2.123876214027404785e-01
1.963493227958679199e-01
1.873558610677719116e-01
1.930570006370544434e-01
2.108089029788970947e-01
2.298104315996170044e-01
2.395146787166595459e-01
2.373457551002502441e-01
2.299421578645706177e-01
2.273152470588684082e-01
2.345820814371109009e-01
2.475830465555191040e-01
2.564290761947631836e-01
2.541895210742950439e-01
2.425984889268875122e-01
2.305166572332382202e-01
2.266131043434143066e-01
2.319908142089843750e-01
2.390175759792327881e-01
2.375760823488235474e-01
2.235980629920959473e-01
2.026899755001068115e-01
1.856516748666763306e-01
1.803300231695175171e-01
1.854108273983001709e-01
1.916326135396957397e-01
1.894624382257461548e-01
1.770687848329544067e-01
1.615090519189834595e-01
1.528332233428955078e-01
1.558237671852111816e-01
1.659437716007232666e-01
1.730065047740936279e-01
1.695490032434463501e-01
1.569641232490539551e-01
1.438628286123275757e-01
1.388941258192062378e-01
1.435164660215377808e-01
1.508856862783432007e-01
1.517845541238784790e-01
1.428144872188568115e-01
1.295026391744613647e-01
1.218289881944656372e-01
1.260258406400680542e-01
1.391839683055877686e-01
1.509990394115447998e-01
1.516076028347015381e-01
1.389482915401458740e-01
1.192570254206657410e-01
1.013084053993225098e-01
8.949631452560424805e-02
8.110685646533966064e-02
7.072480022907257080e-02
5.818842723965644836e-02
5.340436846017837524e-02
7.330084592103958130e-02
1.328990608453750610e-01
2.359637618064880371e-01
3.714446723461151123e-01
5.187739133834838867e-01
6.578729748725891113e-01
7.770040631294250488e-01
8.732005953788757324e-01
9.463937282562255859e-01
9.921636581420898438e-01
1.000000000000000000e+00
9.591337442398071289e-01
8.667920827865600586e-01
7.326167225837707520e-01
5.763291716575622559e-01
4.202095866203308105e-01
2.813457548618316650e-01
1.682998538017272949e-01
8.358854055404663086e-02
2.782008796930313110e-02
8.638628059998154640e-04
0.000000000000000000e+00
1.709182746708393097e-02
3.912299871444702148e-02
5.320119857788085938e-02
5.379155278205871582e-02
4.614412039518356323e-02
4.168868064880371094e-02
4.941979795694351196e-02
6.884383410215377808e-02
9.033112972974777222e-02
1.028759777545928955e-01
1.026699841022491455e-01
9.566566348075866699e-02
9.215352684259414673e-02
9.820386767387390137e-02
1.106114909052848816e-01
1.197638511657714844e-01
1.181276664137840271e-01
1.069370135664939880e-01
9.547395259141921997e-02
9.376177191734313965e-02
1.045478060841560364e-01
1.208918020129203796e-01
1.315596103668212891e-01
1.300554722547531128e-01
1.196844056248664856e-01
1.104719117283821106e-01
1.111870855093002319e-01
1.221430078148841858e-01
1.349574476480484009e-01
1.393769234418869019e-01
1.318320184946060181e-01
1.181766465306282043e-01
1.088542491197586060e-01
1.108897104859352112e-01
1.224016025662422180e-01
1.342967450618743896e-01
1.377806216478347778e-01
1.314610093832015991e-01
1.219863146543502808e-01
1.182752549648284912e-01
1.240396723151206970e-01
1.345182955265045166e-01
1.404036134481430054e-01
1.359767466783523560e-01
1.241396889090538025e-01
1.143881827592849731e-01
1.151730716228485107e-01
1.268834173679351807e-01
1.413769125938415527e-01
1.482727378606796265e-01
1.433894485235214233e-01
1.319323480129241943e-01
1.238903626799583435e-01
1.258933246135711670e-01
1.355883032083511353e-01
1.434808224439620972e-01
1.409228444099426270e-01
1.274649798870086670e-01
1.113875880837440491e-01
1.031807363033294678e-01
1.073841750621795654e-01
1.186738982796669006e-01
1.260183006525039673e-01
1.217741966247558594e-01
1.079366877675056458e-01
9.453818202018737793e-02
9.174263477325439453e-02
1.016368642449378967e-01
1.162916049361228943e-01
1.242406442761421204e-01
1.197852045297622681e-01
1.074604839086532593e-01
9.798012673854827881e-02
9.990961104631423950e-02
1.127926558256149292e-01
1.277218461036682129e-01
1.346930414438247681e-01
1.305817663669586182e-01
1.212749034166336060e-01
1.166393756866455078e-01
1.225787103176116943e-01
1.362022161483764648e-01
1.480738073587417603e-01
1.500246375799179077e-01
1.422258615493774414e-01
1.326768845319747925e-01
1.307138055562973022e-01
1.389782875776290894e-01
1.510607451200485229e-01
1.567372381687164307e-01
1.506982147693634033e-01
1.372725367546081543e-01
1.267353594303131104e-01
1.272906959056854248e-01
1.383412927389144897e-01
1.510569751262664795e-01
1.556612551212310791e-01
1.493462026119232178e-01
1.381575912237167358e-01
1.317652910947799683e-01
1.356790512800216675e-01
1.466877311468124390e-01
1.554301381111145020e-01
1.544805616140365601e-01
1.447423994541168213e-01
1.348103284835815430e-01
1.340461671352386475e-01
1.448833942413330078e-01
1.604732722043991089e-01
1.700027585029602051e-01
1.676934808492660522e-01
1.576072275638580322e-01
1.500728428363800049e-01
1.533571630716323853e-01
1.668650954961776733e-01
1.904617547988891602e-01
1.825070381164550781e-01
1.753876358270645142e-01
1.770598590373992920e-01
1.881441175937652588e-01
2.009510993957519531e-01
2.052937299013137817e-01
1.968097239732742310e-01
1.809662133455276489e-01
1.692272424697875977e-01
1.709284335374832153e-01
1.862016320228576660e-01
2.060987800359725952e-01
2.195732891559600830e-01
2.218120545148849487e-01
2.169661968946456909e-01
2.140313833951950073e-01
2.189744412899017334e-01
2.295813709497451782e-01
2.373866438865661621e-01
2.350915521383285522e-01
2.229379862546920776e-01
2.086699157953262329e-01
2.014448642730712891e-01
2.044435739517211914e-01
2.122155129909515381e-01
2.149735093116760254e-01
2.068230509757995605e-01
1.905317604541778564e-01
1.752974092960357666e-01
1.695441901683807373e-01
1.740336567163467407e-01
1.811219155788421631e-01
1.810753494501113892e-01
1.702687591314315796e-01
1.539971083402633667e-01
1.420983523130416870e-01
1.410773396492004395e-01
1.488049030303955078e-01
1.562844812870025635e-01
1.552022099494934082e-01
1.447052955627441406e-01
1.318770647048950195e-01
1.257863789796829224e-01
1.303566098213195801e-01
1.411145925521850586e-01
1.486983746290206909e-01
1.465494036674499512e-01
1.362017989158630371e-01
1.257904618978500366e-01
1.233382076025009155e-01
1.300651282072067261e-01
1.391584426164627075e-01
1.412605643272399902e-01
1.321008801460266113e-01
1.156167611479759216e-01
1.001140624284744263e-01
9.108346700668334961e-02
8.647321909666061401e-02
7.901881635189056396e-02
6.392460316419601440e-02
4.592293873429298401e-02
3.948299586772918701e-02
6.198023632168769836e-02
1.242077201604843140e-01
2.243050485849380493e-01
3.495525419712066650e-01
4.842410385608673096e-01
6.166089773178100586e-01
7.403234839439392090e-01
8.505760431289672852e-01
9.390681385993957520e-01
9.929975867271423340e-01
1.000000000000000000e+00
9.553111195564270020e-01
8.645779490470886230e-01
7.406692504882812500e-01
5.983200073242187500e-01
4.504718184471130371e-01
3.081578016281127930e-01
1.823389530181884766e-01
8.442800492048263550e-02
2.318616211414337158e-02
0.000000000000000000e+00
6.515327841043472290e-03
2.675939723849296570e-02
4.412234947085380554e-02
4.929942637681961060e-02
4.427151381969451904e-02
3.908716514706611633e-02
4.358652606606483459e-02
5.961748212575912476e-02
7.953833788633346558e-02
9.234910458326339722e-02
9.267042577266693115e-02
8.487781882286071777e-02
7.910889387130737305e-02
8.316905796527862549e-02
9.630041569471359253e-02
1.098693758249282837e-01
1.145474389195442200e-01
1.081641018390655518e-01
9.736537188291549683e-02
9.236714988946914673e-02
9.872735291719436646e-02
1.128474101424217224e-01
1.248023360967636108e-01
1.264921873807907104e-01
1.185220330953598022e-01
1.095071583986282349e-01
1.090622916817665100e-01
1.196796894073486328e-01
1.343543529510498047e-01
1.419938653707504272e-01
1.367370486259460449e-01
1.228904277086257935e-01
1.115886121988296509e-01
1.120489090681076050e-01
1.242021918296813965e-01
1.386200040578842163e-01
1.442419439554214478e-01
1.373229324817657471e-01
1.242339164018630981e-01
1.160757467150688171e-01
1.196412742137908936e-01
1.321363896131515503e-01
1.434834599494934082e-01
1.448575109243392944e-01
1.359170079231262207e-01
1.248209699988365173e-01
1.213069632649421692e-01
1.287278980016708374e-01
1.412819474935531616e-01
1.487843841314315796e-01
1.451495885848999023e-01
1.332924515008926392e-01
1.224413290619850159e-01
1.208016946911811829e-01
1.289195567369461060e-01
1.393759995698928833e-01
1.428444683551788330e-01
1.356815397739410400e-01
1.226616576313972473e-01
1.129805669188499451e-01
1.130080670118331909e-01
1.210934743285179138e-01
1.290353834629058838e-01
1.289581209421157837e-01
1.198664009571075439e-01
1.082693189382553101e-01
1.028694435954093933e-01
1.074338555335998535e-01
1.175483241677284241e-01
1.242510899901390076e-01
1.215910241007804871e-01
1.117104142904281616e-01
1.031612232327461243e-01
1.039915904402732849e-01
1.151082962751388550e-01
1.290845721960067749e-01
1.359781324863433838e-01
1.316571831703186035e-01
1.211126819252967834e-01
1.141984686255455017e-01
1.175734996795654297e-01
1.291483193635940552e-01
1.399357020854949951e-01
1.417346894741058350e-01
1.340555846691131592e-01
1.241813823580741882e-01
1.211525574326515198e-01
1.283029615879058838e-01
1.405573785305023193e-01
1.486451178789138794e-01
1.468183249235153198e-01
1.376059800386428833e-01
1.294863671064376831e-01
1.300189942121505737e-01
1.396133601665496826e-01
1.509946286678314209e-01
1.548464000225067139e-01
1.475909203290939331e-01
1.342930793762207031e-01
1.245377734303474426e-01
1.250917911529541016e-01
1.345736533403396606e-01
1.445733010768890381e-01
1.465994566679000854e-01
1.390807330608367920e-01
1.287478357553482056e-01
1.251459270715713501e-01
1.329322755336761475e-01
1.477796733379364014e-01
1.597104519605636597e-01
1.612627655267715454e-01
1.535520851612091064e-01
1.450816243886947632e-01
1.447914540767669678e-01
1.546669602394104004e-01
1.750823855400085449e-01
1.851921081542968750e-01
1.990043669939041138e-01
2.074765413999557495e-01
2.075403928756713867e-01
2.041343152523040771e-01
2.056493312120437622e-01
2.164054512977600098e-01
2.325474023818969727e-01
2.445409446954727173e-01
2.450939267873764038e-01
2.354349493980407715e-01
2.243123948574066162e-01
2.209624648094177246e-01
2.273474633693695068e-01
2.361596673727035522e-01
2.366796135902404785e-01
2.236911654472351074e-01
2.018395364284515381e-01
1.821628510951995850e-01
1.738573759794235229e-01
1.773494929075241089e-01
1.844238191843032837e-01
1.851413100957870483e-01
1.760232001543045044e-01
1.624750047922134399e-01
1.538406759500503540e-01
1.554933041334152222e-01
1.640725880861282349e-01
1.698706448078155518e-01
1.650810390710830688e-01
1.505036354064941406e-01
1.350151598453521729e-01
1.285353153944015503e-01
1.342190355062484741e-01
1.457808613777160645e-01
1.523844748735427856e-01
1.473268717527389526e-01
1.333337426185607910e-01
1.202100291848182678e-01
1.169019341468811035e-01
1.244517043232917786e-01
1.352057754993438721e-01
1.390674710273742676e-01
1.316971480846405029e-01
1.178238689899444580e-01
1.066629365086555481e-01
1.037643775343894958e-01
1.056524515151977539e-01
1.021035686135292053e-01
8.467385917901992798e-02
5.461002513766288757e-02
2.365586720407009125e-02
8.021750487387180328e-03
1.977482251822948456e-02
6.196682155132293701e-02
1.310174167156219482e-01
2.226822525262832642e-01
3.359055519104003906e-01
4.701398313045501709e-01
6.191580295562744141e-01
7.669957280158996582e-01
8.909538984298706055e-01
9.711804986000061035e-01
1.000000000000000000e+00
9.834743142127990723e-01
9.338226318359375000e-01
8.588621616363525391e-01
7.574938535690307617e-01
6.254505515098571777e-01
4.667548239231109619e-01
3.004006743431091309e-01
1.549247652292251587e-01
5.474653840065002441e-02
7.233493961393833160e-03
0.000000000000000000e+00
9.869874455034732819e-03
1.727668382227420807e-02
1.583762839436531067e-02
1.122179999947547913e-02
1.278620306402444839e-02
2.464716322720050812e-02
4.212767630815505981e-02
5.602234601974487305e-02
6.064807996153831482e-02
5.844923481345176697e-02
5.752666667103767395e-02
6.454658508300781250e-02
7.857415080070495605e-02
9.127007424831390381e-02
9.391321986913681030e-02
8.503480255603790283e-02
7.220707833766937256e-02
6.638637185096740723e-02
7.335785031318664551e-02
8.899951726198196411e-02
1.025082319974899292e-01
1.050971150398254395e-01
9.710682183504104614e-02
8.726006746292114258e-02
8.526206016540527344e-02
9.389198571443557739e-02
1.067780628800392151e-01
1.138454750180244446e-01
1.099870726466178894e-01
9.937424212694168091e-02
9.185198694467544556e-02
9.494902938604354858e-02
1.076142862439155579e-01
1.207337528467178345e-01
1.245762631297111511e-01
1.168305277824401855e-01
1.043936312198638916e-01
9.797812253236770630e-02
1.034800261259078979e-01
1.172193139791488647e-01
1.288671642541885376e-01
1.299048662185668945e-01
1.204122826457023621e-01
1.087447702884674072e-01
1.046480983495712280e-01
1.113290935754776001e-01
1.230239719152450562e-01
1.298331469297409058e-01
1.259900033473968506e-01
1.146930232644081116e-01
1.052347347140312195e-01
1.055099591612815857e-01
1.154438480734825134e-01
1.267230510711669922e-01
1.295391917228698730e-01
1.208196207880973816e-01
1.070045381784439087e-01
9.870881587266921997e-02
1.023822575807571411e-01
1.147697716951370239e-01
1.252888739109039307e-01
1.245569214224815369e-01
1.118186861276626587e-01
9.537272155284881592e-02
8.592826873064041138e-02
8.837938308715820312e-02
9.820475429296493530e-02
1.054483130574226379e-01
1.032831221818923950e-01
9.359411150217056274e-02
8.520528674125671387e-02
8.666777610778808594e-02
9.897381812334060669e-02
1.145292967557907104e-01
1.230724155902862549e-01
1.200102940201759338e-01
1.100551784038543701e-01
1.031632795929908752e-01
1.065240651369094849e-01
1.185375824570655823e-01
1.303177028894424438e-01
1.331245750188827515e-01
1.257515698671340942e-01
1.155762746930122375e-01
1.123839244246482849e-01
1.203393116593360901e-01
1.342497020959854126e-01
1.434944123029708862e-01
1.408916860818862915e-01
1.287152469158172607e-01
1.167504787445068359e-01
1.147229075431823730e-01
1.243809312582015991e-01
1.379857510328292847e-01
1.444761157035827637e-01
1.386854499578475952e-01
1.253574490547180176e-01
1.151473894715309143e-01
1.161062866449356079e-01
1.270718872547149658e-01
1.387974321842193604e-01
1.417725831270217896e-01
1.341441720724105835e-01
1.232045218348503113e-01
1.192011162638664246e-01
1.268841028213500977e-01
1.413803398609161377e-01
1.520139425992965698e-01
1.512447148561477661e-01
1.408567726612091064e-01
1.304059326648712158e-01
1.295656263828277588e-01
1.403110325336456299e-01
1.552633792161941528e-01
1.635612994432449341e-01
1.598829776048660278e-01
1.486124247312545776e-01
1.400573551654815674e-01
1.422228515148162842e-01
1.542467474937438965e-01
1.670521497726440430e-01
1.707737147808074951e-01
1.628107875585556030e-01
1.859630644321441650e-01
1.788624674081802368e-01
1.720869541168212891e-01
1.730057001113891602e-01
1.820430010557174683e-01
1.918805837631225586e-01
1.934287101030349731e-01
1.837007254362106323e-01
1.689390838146209717e-01
1.602622717618942261e-01
1.654070466756820679e-01
1.824358701705932617e-01
2.010497748851776123e-01
2.103580236434936523e-01
2.069989889860153198e-01
1.972084492444992065e-01
1.913087666034698486e-01
1.952468305826187134e-01
2.060136795043945312e-01
2.143142074346542358e-01
2.124227583408355713e-01
2.006206363439559937e-01
1.867680549621582031e-01
1.799241602420806885e-01
1.830205619335174561e-01
1.904996335506439209e-01
1.928664445877075195e-01
1.845803111791610718e-01
1.684947162866592407e-01
1.534148007631301880e-01
1.471858918666839600e-01
1.503653228282928467e-01
1.557762175798416138e-01
1.546703726053237915e-01
1.442241668701171875e-01
1.298210769891738892e-01
1.206095442175865173e-01
1.221227943897247314e-01
1.315283477306365967e-01
1.398763507604598999e-01
1.395040899515151978e-01
1.302477270364761353e-01
1.190612837672233582e-01
1.140993088483810425e-01
1.178768351674079895e-01
1.251976042985916138e-01
1.275821328163146973e-01
1.206361129879951477e-01
1.080252677202224731e-01
9.854651987552642822e-02
9.905840456485748291e-02
1.086380481719970703e-01
1.190915927290916443e-01
1.211434379220008850e-01
1.114443764090538025e-01
9.448225796222686768e-02
7.813886553049087524e-02
6.696266680955886841e-02
5.869741737842559814e-02
4.727517068386077881e-02
3.024662658572196960e-02
1.455254014581441879e-02
1.544139441102743149e-02
4.902713745832443237e-02
1.232628226280212402e-01
2.334120422601699829e-01
3.654347062110900879e-01
5.040993690490722656e-01
6.387423276901245117e-01
7.632546424865722656e-01
8.719627261161804199e-01
9.552539587020874023e-01
1.000000000000000000e+00
9.951503872871398926e-01
9.382883906364440918e-01
8.371483683586120605e-01
7.058894634246826172e-01
5.599406361579895020e-01
4.125267863273620605e-01
2.745603024959564209e-01
1.563238054513931274e-01
6.793593615293502808e-02
1.613719947636127472e-02
0.000000000000000000e+00
9.337600320577621460e-03
2.802608534693717957e-02
4.110854864120483398e-02
4.203462973237037659e-02
3.489515557885169983e-02
2.999974600970745087e-02
3.549547120928764343e-02
5.096675828099250793e-02
6.783463805913925171e-02
7.614001631736755371e-02
7.259359210729598999e-02
6.305506080389022827e-02
5.768747627735137939e-02
6.296123564243316650e-02
7.667750865221023560e-02
8.975457400083541870e-02
9.353500604629516602e-02
8.670675754547119141e-02
7.614776492118835449e-02
7.135739177465438843e-02
7.700949162244796753e-02
8.918594568967819214e-02
9.862124919891357422e-02
9.846819192171096802e-02
8.986403793096542358e-02
8.089454472064971924e-02
7.996251434087753296e-02
8.879957348108291626e-02
1.008798480033874512e-01
1.068438664078712463e-01
1.023183688521385193e-01
9.147166460752487183e-02
8.346215635538101196e-02
8.510632067918777466e-02
9.543822705745697021e-02
1.064862757921218872e-01
1.097956448793411255e-01
1.033187583088874817e-01
9.286922961473464966e-02
8.735094964504241943e-02
9.174691885709762573e-02
1.029087230563163757e-01
1.122088208794593811e-01
1.126476451754570007e-01
1.046810299158096313e-01
9.572385996580123901e-02
9.414666891098022461e-02
1.022727042436599731e-01
1.142981722950935364e-01
1.211532652378082275e-01
1.180802658200263977e-01
1.084639579057693481e-01
1.008611619472503662e-01
1.020521149039268494e-01
1.113725528120994568e-01
1.211219877004623413e-01
1.229399666190147400e-01
1.148698478937149048e-01
1.028604283928871155e-01
9.591732174158096313e-02
9.880128502845764160e-02
1.080570966005325317e-01
1.147756054997444153e-01
1.120745837688446045e-01
1.009630113840103149e-01
8.936349302530288696e-02
8.572062104940414429e-02
9.225977957248687744e-02
1.031133979558944702e-01
1.092164963483810425e-01
1.058145537972450256e-01
9.628085792064666748e-02
8.910582214593887329e-02
9.099312871694564819e-02
1.012151539325714111e-01
1.120142489671707153e-01
1.150020062923431396e-01
1.082140281796455383e-01
9.777542948722839355e-02
9.293247014284133911e-02
9.864310920238494873e-02
1.114643067121505737e-01
1.222048625349998474e-01
1.234050840139389038e-01
1.153770312666893005e-01
1.055354252457618713e-01
1.022929027676582336e-01
1.083023175597190857e-01
1.183055564761161804e-01
1.235137134790420532e-01
1.190457865595817566e-01
1.080792397260665894e-01
9.927041828632354736e-02
9.996359050273895264e-02
1.100933104753494263e-01
1.220699325203895569e-01
1.266085803508758545e-01
1.202251091599464417e-01
1.079874932765960693e-01
9.928480535745620728e-02
1.004608124494552612e-01
1.097209155559539795e-01
1.187310963869094849e-01
1.196723952889442444e-01
1.118137314915657043e-01
1.019288077950477600e-01
9.863895922899246216e-02
1.052307039499282837e-01
1.167672574520111084e-01
1.240866333246231079e-01
1.215652376413345337e-01
1.117644608020782471e-01
1.034326553344726562e-01
1.045551002025604248e-01
1.157791838049888611e-01
2.038370370864868164e-01
1.977457553148269653e-01
1.897277086973190308e-01
1.884112954139709473e-01
1.966708600521087646e-01
2.089990824460983276e-01
2.159074991941452026e-01
2.120492756366729736e-01
2.010876983404159546e-01
1.930247396230697632e-01
1.965711861848831177e-01
2.121542692184448242e-01
2.313285320997238159e-01
2.432155758142471313e-01
2.428670823574066162e-01
2.347079515457153320e-01
2.284473478794097900e-01
2.309991717338562012e-01
2.406751364469528198e-01
2.487151771783828735e-01
2.467017918825149536e-01
2.338078320026397705e-01
2.175094336271286011e-01
2.076156139373779297e-01
2.082839012145996094e-01
2.144414931535720825e-01
2.159642428159713745e-01
2.061470299959182739e-01
1.874840259552001953e-01
1.696974635124206543e-01
1.623598635196685791e-01
1.673013120889663696e-01
1.770584434270858765e-01
1.808990687131881714e-01
1.735914945602416992e-01
1.594131290912628174e-01
1.483198553323745728e-01
1.477010250091552734e-01
1.561863422393798828e-01
1.646866798400878906e-01
1.639012694358825684e-01
1.521431803703308105e-01
1.366556882858276367e-01
1.277989745140075684e-01
1.309042423963546753e-01
1.419875025749206543e-01
1.509381234645843506e-01
1.497476398944854736e-01
1.389441341161727905e-01
1.269524097442626953e-01
1.232111677527427673e-01
1.304116249084472656e-01
1.420032829046249390e-01
1.472636312246322632e-01
1.396235078573226929e-01
1.213859096169471741e-01
1.008193567395210266e-01
8.536174893379211426e-02
7.596175372600555420e-02
6.804566085338592529e-02
5.833555757999420166e-02
5.203445255756378174e-02
6.345421075820922852e-02
1.094404608011245728e-01
1.993847191333770752e-01
3.282088041305541992e-01
4.777343273162841797e-01
6.253880262374877930e-01
7.542625069618225098e-01
8.573033809661865234e-01
9.342556595802307129e-01
9.840534329414367676e-01
1.000000000000000000e+00
9.717992544174194336e-01
8.933865427970886230e-01
7.697278261184692383e-01
6.175504922866821289e-01
4.595857858657836914e-01
3.158217370510101318e-01
1.975703686475753784e-01
1.077016741037368774e-01
4.549394175410270691e-02
1.010015606880187988e-02
0.000000000000000000e+00
9.959821589291095734e-03
2.941309846937656403e-02
4.549712687730789185e-02
4.994399473071098328e-02
4.445303976535797119e-02
3.883145749568939209e-02
4.329986497759819031e-02
6.040902063250541687e-02
8.280158787965774536e-02
9.878184646368026733e-02
1.014626249670982361e-01
9.379761666059494019e-02
8.599834144115447998e-02
8.736694604158401489e-02
9.903490543365478516e-02
1.133352443575859070e-01
1.201715916395187378e-01
1.154219061136245728e-01
1.041044071316719055e-01
9.610138088464736938e-02
9.832746535539627075e-02
1.092053055763244629e-01
1.199616193771362305e-01
1.221230775117874146e-01
1.145853623747825623e-01
1.044742837548255920e-01
1.012983173131942749e-01
1.091732978820800781e-01
1.230750828981399536e-01
1.328818202018737793e-01
1.318051218986511230e-01
1.220898553729057312e-01
1.131648719310760498e-01
1.140018701553344727e-01
1.255173683166503906e-01
1.396582424640655518e-01
1.457248032093048096e-01
1.391522884368896484e-01
1.252439767122268677e-01
1.146918609738349915e-01
1.153226867318153381e-01
1.258221566677093506e-01
1.369811147451400757e-01
1.394538879394531250e-01
1.315910518169403076e-01
1.205602809786796570e-01
1.163255125284194946e-01
1.233894303441047668e-01
1.369528919458389282e-01
1.464950591325759888e-01
1.446095556020736694e-01
1.330916434526443481e-01
1.213428229093551636e-01
1.188639774918556213e-01
1.275392472743988037e-01
1.400200873613357544e-01
1.456164866685867310e-01
1.391264945268630981e-01
1.250050216913223267e-01
1.136436760425567627e-01
1.131680533289909363e-01
1.227912232279777527e-01
1.334443837404251099e-01
1.353615820407867432e-01
1.260278820991516113e-01
1.120732948184013367e-01
1.036274209618568420e-01
1.062277853488922119e-01
1.163896843791007996e-01
1.246481984853744507e-01
1.234748438000679016e-01
1.137720271944999695e-01
1.039045974612236023e-01
1.029032915830612183e-01
1.129805371165275574e-01
1.273767650127410889e-01
1.356876045465469360e-01
1.325526088476181030e-01
1.220220401883125305e-01
1.141727045178413391e-01
1.169637665152549744e-01
1.294156312942504883e-01
1.423517614603042603e-01
1.457795798778533936e-01
1.372249126434326172e-01
1.236585676670074463e-01
1.159786954522132874e-01
1.203700378537178040e-01
1.333569884300231934e-01
1.445895284414291382e-01
1.454169750213623047e-01
1.358787715435028076e-01
1.243892237544059753e-01
1.205962374806404114e-01
1.273967772722244263e-01
1.383532136678695679e-01
1.429907828569412231e-01
1.358399242162704468e-01
1.211939901113510132e-01
1.097658872604370117e-01
1.103566586971282959e-01
1.228925734758377075e-01
1.384977996349334717e-01
1.465190201997756958e-01
1.430341750383377075e-01
1.334910988807678223e-01
1.276647150516510010e-01
1.316971033811569214e-01
1.429147720336914062e-01
1.521095037460327148e-01
1.515959501266479492e-01
1.418826729059219360e-01
1.313971579074859619e-01
1.297720074653625488e-01
1.399697214365005493e-01
1.997185200452804565e-01
1.920150518417358398e-01
1.819332987070083618e-01
1.797555088996887207e-01
1.897971630096435547e-01
2.059744894504547119e-01
2.170953750610351562e-01
2.160914242267608643e-01
2.055343687534332275e-01
1.952187418937683105e-01
1.940105259418487549e-01
2.025144994258880615e-01
2.128520756959915161e-01
2.158506661653518677e-01
2.093226909637451172e-01
2.001759707927703857e-01
1.988913267850875854e-01
2.108855694532394409e-01
2.314381301403045654e-01
2.487549185752868652e-01
2.531047761440277100e-01
2.443181425333023071e-01
2.314726561307907104e-01
2.255877405405044556e-01
2.308194488286972046e-01
2.412976175546646118e-01
2.458463311195373535e-01
2.375507205724716187e-01
2.194861173629760742e-01
2.021395266056060791e-01
1.951003968715667725e-01
1.992892175912857056e-01
2.062214612960815430e-01
2.052045762538909912e-01
1.925662904977798462e-01
1.749285459518432617e-01
1.637567430734634399e-01
1.660455167293548584e-01
1.781497448682785034e-01
1.883126795291900635e-01
1.861103326082229614e-01
1.708908081054687500e-01
1.522106379270553589e-01
1.420591622591018677e-01
1.455371528863906860e-01
1.569217145442962646e-01
1.645039021968841553e-01
1.603164076805114746e-01
1.465216279029846191e-01
1.331842988729476929e-01
1.299475580453872681e-01
1.380309015512466431e-01
1.491557359695434570e-01
1.522338837385177612e-01
1.428113877773284912e-01
1.267198324203491211e-01
1.153594776988029480e-01
1.165005862712860107e-01
1.272317916154861450e-01
1.354907453060150146e-01
1.288087517023086548e-01
1.036316901445388794e-01
6.747433543205261230e-02
3.274009004235267639e-02
9.335419163107872009e-03
0.000000000000000000e+00
6.425199564546346664e-03
3.721876069903373718e-02
1.083982586860656738e-01
2.326425760984420776e-01
4.044720232486724854e-01
5.960669517517089844e-01
7.693488001823425293e-01
8.954023122787475586e-01
9.675628542900085449e-01
9.976605176925659180e-01
1.000000000000000000e+00
9.765182137489318848e-01
9.162201881408691406e-01
8.080773949623107910e-01
6.541420221328735352e-01
4.760490953922271729e-01
3.063406348228454590e-01
1.729460060596466064e-01
8.667088299989700317e-02
4.003765061497688293e-02
1.743070967495441437e-02
7.005737628787755966e-03
5.498826503753662109e-03
1.433374173939228058e-02
3.198393434286117554e-02
5.117065832018852234e-02
6.304034590721130371e-02
6.434086710214614868e-02
6.032145768404006958e-02
6.062211841344833374e-02
7.164039462804794312e-02
9.105347841978073120e-02
1.091244667768478394e-01
1.162482053041458130e-01
1.108335107564926147e-01
1.005800664424896240e-01
9.627979248762130737e-02
1.033938825130462646e-01
1.176240220665931702e-01
1.284079253673553467e-01
1.278185397386550903e-01
1.172696724534034729e-01
1.063499301671981812e-01
1.052983477711677551e-01
1.167986318469047546e-01
1.336165517568588257e-01
1.442438215017318726e-01
1.421144753694534302e-01
1.307880133390426636e-01
1.209110096096992493e-01
1.218025162816047668e-01
1.339285075664520264e-01
1.491238176822662354e-01
1.576451361179351807e-01
1.565569043159484863e-01
1.514508724212646484e-01
1.503361165523529053e-01
1.554369032382965088e-01
1.614033281803131104e-01
1.607268899679183960e-01
1.512986719608306885e-01
1.394764482975006104e-01
1.348984241485595703e-01
1.416100412607192993e-01
1.538730263710021973e-01
1.610570102930068970e-01
1.565974801778793335e-01
1.439565867185592651e-01
1.338497847318649292e-01
1.355997473001480103e-01
1.492341309785842896e-01
1.651576012372970581e-01
1.717805117368698120e-01
1.648582518100738525e-01
1.506254971027374268e-01
1.404532194137573242e-01
1.416913866996765137e-01
1.516917943954467773e-01
1.599987149238586426e-01
1.573068350553512573e-01
1.434464305639266968e-01
1.275857985019683838e-01
1.208812221884727478e-01
1.275807321071624756e-01
1.412478387355804443e-01
1.498192548751831055e-01
1.454238891601562500e-01
1.307331770658493042e-01
1.165454313158988953e-01
1.133803799748420715e-01
1.232820972800254822e-01
1.384670883417129517e-01
1.478277146816253662e-01
1.458892077207565308e-01
1.370696723461151123e-01
1.315700262784957886e-01
1.369596868753433228e-01
1.515034139156341553e-01
1.653438508510589600e-01
1.685115247964859009e-01
1.593224257230758667e-01
1.458988636732101440e-01
1.396592557430267334e-01
1.462761163711547852e-01
1.608912050724029541e-01
1.720941066741943359e-01
1.714287847280502319e-01
1.601733565330505371e-01
1.481080800294876099e-01
1.455747932195663452e-01
1.550308316946029663e-01
1.690385490655899048e-01
1.762505024671554565e-01
1.709436625242233276e-01
1.576341688632965088e-01
1.472280174493789673e-01
1.482262462377548218e-01
1.596551686525344849e-01
1.717726588249206543e-01
1.741232872009277344e-01
1.644714921712875366e-01
1.505587100982666016e-01
1.438028961420059204e-01
1.502619832754135132e-01
1.655175089836120605e-01
1.783063709735870361e-01
1.797756403684616089e-01
1.705287694931030273e-01
1.597957611083984375e-01
1.579176485538482666e-01
1.678773015737533569e-01
1.827922463417053223e-01
1.917098164558410645e-01
4.553492367267608643e-01
3.943412899971008301e-01
4.385499656200408936e-01
5.464190840721130371e-01
6.321839094161987305e-01
6.295313835144042969e-01
5.269672870635986328e-01
3.687002658843994141e-01
2.166224569082260132e-01
9.725905954837799072e-02
2.829354628920555115e-02
0.000000000000000000e+00
1.237842626869678497e-02
7.161803543567657471e-02
1.600353717803955078e-01
2.661361694335937500e-01
3.837312161922454834e-01
5.092838406562805176e-01
6.224579811096191406e-01
6.861184835433959961e-01
6.542882323265075684e-01
5.251989364624023438e-01
3.660477399826049805e-01
2.652519941329956055e-01
2.829354405403137207e-01
3.978779911994934082e-01
5.349248647689819336e-01
6.198054552078247070e-01
6.339522600173950195e-01
6.136162877082824707e-01
6.047745347023010254e-01
6.091954112052917480e-01
5.968169569969177246e-01
5.260831117630004883e-01
4.058355391025543213e-01
2.811671197414398193e-01
2.130857706069946289e-01
2.404951304197311401e-01
3.589743673801422119e-01
5.039787888526916504e-01
6.012378334999084473e-01
6.180371642112731934e-01
5.579133629798889160e-01
4.677276611328125000e-01
4.031830132007598877e-01
3.925729393959045410e-01
4.465075135231018066e-01
5.579133629798889160e-01
6.905393600463867188e-01
7.913351058959960938e-01
7.957559823989868164e-01
6.940760612487792969e-01
5.216622352600097656e-01
3.527851402759552002e-01
2.236958444118499756e-01
1.600353717803955078e-01
1.697612702846527100e-01
2.714411914348602295e-01
4.597701132297515869e-01
6.949602365493774414e-01
8.992042541503906250e-01
1.000000000000000000e+00
9.832007288932800293e-01
8.744474053382873535e-01
7.259062528610229492e-01
5.720601081848144531e-01
4.235190153121948242e-01
2.935455441474914551e-01
2.166224569082260132e-01
2.228116691112518311e-01
3.306808173656463623e-01
5.066313147544860840e-01
6.640141606330871582e-01
7.197170853614807129e-01
6.233421564102172852e-01
4.182139635086059570e-01
2.007073312997817993e-01
7.869142293930053711e-02
9.283819794654846191e-02
2.192749828100204468e-01
3.846153914928436279e-01
5.243147611618041992e-01
5.915119647979736328e-01
5.720601081848144531e-01
4.960212111473083496e-01
3.925729393959045410e-01
2.926613688468933105e-01
2.449160069227218628e-01
2.590627670288085938e-01
3.244915902614593506e-01
3.890362381935119629e-01
3.996463418006896973e-01
3.377541899681091309e-01
2.254641950130462646e-01
1.299734711647033691e-01
9.814323484897613525e-02
1.405835598707199097e-01
2.192749828100204468e-01
2.926613688468933105e-01
3.554376661777496338e-01
4.208664894104003906e-01
5.101680159568786621e-01
6.091954112052917480e-01
6.940760612487792969e-01
7.400530576705932617e-01
7.285587787628173828e-01
6.719716787338256836e-01
5.817860364913940430e-01
4.694960117340087891e-01
3.457117676734924316e-01
2.325375825166702271e-01
1.786030083894729614e-01
2.183908075094223022e-01
3.430592417716979980e-01
4.748010635375976562e-01
5.473032593727111816e-01
5.481874346733093262e-01
5.251989364624023438e-01
5.473032593727111816e-01
6.286472082138061523e-01
7.347480058670043945e-01
8.045976758003234863e-01
8.001768589019775391e-01
7.435897588729858398e-01
6.587091088294982910e-01
5.632184147834777832e-01
4.456233382225036621e-01
3.236074149608612061e-01
2.104332447052001953e-01
1.299734711647033691e-01
1.061007976531982422e-01
1.361626833677291870e-01
1.900972574949264526e-01
2.555260956287384033e-01
3.094606399536132812e-01
3.404067158699035645e-01
3.589743673801422119e-01
3.828470408916473389e-01
4.341290891170501709e-01
5.057471394538879395e-01
5.729442834854125977e-01
6.021220088005065918e-01
5.738284587860107422e-01
5.163571834564208984e-01
4.721485376358032227e-01
4.756852388381958008e-01
5.137046575546264648e-01
5.579133629798889160e-01
6.003536581993103027e-01
6.445623636245727539e-01
6.914235353469848633e-01
7.365163564682006836e-01
7.559681534767150879e-01
7.382847070693969727e-01
6.843501329421997070e-01
5.809018611907958984e-01
4.270557165145874023e-01
2.369584441184997559e-01
7.338638603687286377e-02
1.503094565123319626e-02
9.372237324714660645e-02
2.793987691402435303e-01
4.756852388381958008e-01
6.162688136100769043e-01
7.011494040489196777e-01
7.586206793785095215e-01
8.134394288063049316e-01
8.470380306243896484e-01
8.461538553237915039e-01
8.187444806098937988e-01
7.939876317977905273e-01
8.028293251991271973e-01
8.187444806098937988e-01
8.045976758003234863e-01
7.250220775604248047e-01
5.835543870925903320e-01
4.420866370201110840e-01
3.651635646820068359e-01
3.908045887947082520e-01
5.092838406562805176e-01
6.648983359336853027e-01
7.771883010864257812e-01
7.798408269882202148e-01
6.560565829277038574e-01
4.606542885303497314e-01
2.625994682312011719e-01
1.246684342622756958e-01
7.427055388689041138e-02
8.488063514232635498e-02
1.308576464653015137e-01
1.786030083894729614e-01
2.068965584039688110e-01
1.971706449985504150e-01
1.644562333822250366e-01
1.308576464653015137e-01
1.220159158110618591e-01
1.635720580816268921e-01
2.555260956287384033e-01
3.837312161922454834e-01
5.057471394538879395e-01
3.375959098339080811e-01
3.464052379131317139e-01
2.821824252605438232e-01
2.128445655107498169e-01
2.063086032867431641e-01
2.824666202068328857e-01
3.935777246952056885e-01
4.575163424015045166e-01
4.214265346527099609e-01
3.054845035076141357e-01
1.838590502738952637e-01
1.273088902235031128e-01
1.489059329032897949e-01
1.966467797756195068e-01
2.119920402765274048e-01
1.815856844186782837e-01
1.528843492269515991e-01
1.790281385183334351e-01
2.674055099487304688e-01
3.634555339813232422e-01
3.913043439388275146e-01
3.148621618747711182e-01
1.719238460063934326e-01
4.063654318451881409e-02
0.000000000000000000e+00
6.820119172334671021e-02
2.262006253004074097e-01
4.381926655769348145e-01
6.649616360664367676e-01
8.616083860397338867e-01
9.820972084999084473e-01
1.000000000000000000e+00
9.306620955467224121e-01
8.260869383811950684e-01
7.419721484184265137e-01
6.950838565826416016e-01
6.658141613006591797e-01
6.283034682273864746e-01
5.879511237144470215e-01
5.774367451667785645e-01
6.050014495849609375e-01
6.365444660186767578e-01
6.234725713729858398e-01
5.458937287330627441e-01
4.418869018554687500e-01
3.799374699592590332e-01
4.046604037284851074e-01
4.919010996818542480e-01
5.643648505210876465e-01
5.564080476760864258e-01
4.631997644901275635e-01
3.469735682010650635e-01
2.875817120075225830e-01
3.299232721328735352e-01
4.484228491783142090e-01
5.691958069801330566e-01
6.229042410850524902e-01
5.876669287681579590e-01
4.984370470046997070e-01
4.129014015197753906e-01
3.708439767360687256e-01
3.697073161602020264e-01
3.742540478706359863e-01
3.458368778228759766e-01
2.821824252605438232e-01
2.156862765550613403e-01
2.040352374315261841e-01
2.654163241386413574e-01
3.620346784591674805e-01
4.183006584644317627e-01
3.779482841491699219e-01
2.477976679801940918e-01
1.045751646161079407e-01
3.949985653162002563e-02
9.747087210416793823e-02
2.455243021249771118e-01
4.009661972522735596e-01
4.893435537815093994e-01
4.884910583496093750e-01
4.347825944423675537e-01
3.890309631824493408e-01
3.816425204277038574e-01
3.895993232727050781e-01
3.637396991252899170e-01
2.745098173618316650e-01
1.452117115259170532e-01
4.063654318451881409e-02
1.761864125728607178e-02
9.349247068166732788e-02
2.219380438327789307e-01
3.310599625110626221e-01
3.734015226364135742e-01
3.515203297138214111e-01
3.128729760646820068e-01
3.029269576072692871e-01
3.285024166107177734e-01
3.546462059020996094e-01
3.361750543117523193e-01
2.679738700389862061e-01
1.932367086410522461e-01
1.716396659612655640e-01
2.233589142560958862e-01
3.100312650203704834e-01
3.702756464481353760e-01
3.694231212139129639e-01
3.239556550979614258e-01
2.884342074394226074e-01
3.003694117069244385e-01
3.500994741916656494e-01
3.833475410938262939e-01
3.520886600017547607e-01
2.523444294929504395e-01
1.389599293470382690e-01
8.894572407007217407e-02
1.395282745361328125e-01
2.645637989044189453e-01
3.810741603374481201e-01
4.120488762855529785e-01
3.378800749778747559e-01
2.031827270984649658e-01
9.235578030347824097e-02
7.274793833494186401e-02
1.418016552925109863e-01
2.423984110355377197e-01
2.944018244743347168e-01
2.568911612033843994e-01
1.571469157934188843e-01
6.678033620119094849e-02
5.569764226675033569e-02
1.466325670480728149e-01
2.983802258968353271e-01
4.322250783443450928e-01
4.836601316928863525e-01
4.342142641544342041e-01
3.276498913764953613e-01
2.296106815338134766e-01
1.872691065073013306e-01
1.935208886861801147e-01
2.046035826206207275e-01
1.804489940404891968e-01
1.267405450344085693e-01
8.780903369188308716e-02
1.051435098052024841e-01
1.747655570507049561e-01
2.520602345466613770e-01
2.921284437179565430e-01
2.929809689521789551e-01
2.918442785739898682e-01
3.177039027214050293e-01
3.634555339813232422e-01
3.890309631824493408e-01
3.628871738910675049e-01
3.029269576072692871e-01
2.549019753932952881e-01
2.585961818695068359e-01
3.037794828414916992e-01
3.429951667785644531e-01
3.398692905902862549e-01
3.023586273193359375e-01
2.776356935501098633e-01
2.966752052307128906e-01
3.432793319225311279e-01
3.702756464481353760e-01
3.447001874446868896e-01
2.867291867733001709e-01
2.489343583583831787e-01
2.682580351829528809e-01
3.253765404224395752e-01
3.643080294132232666e-01
3.378800749778747559e-01
2.620062530040740967e-01
2.011935263872146606e-01
2.154020965099334717e-01
3.020744621753692627e-01
3.958511054515838623e-01
4.200056791305541992e-01
3.415743112564086914e-01
2.040352374315261841e-01
9.860756248235702515e-02
9.690252691507339478e-02
1.972151249647140503e-01
3.387326002120971680e-01
4.350667893886566162e-01
4.387610256671905518e-01
3.597612977027893066e-01
2.651321291923522949e-01
2.227905690670013428e-01
2.571753263473510742e-01
3.321966528892517090e-01
3.756749033927917480e-01
3.353225290775299072e-01
2.173912972211837769e-01
9.235578030347824097e-02
3.580562770366668701e-02
8.525149524211883545e-02
2.111395299434661865e-01
3.356066942214965820e-01
3.893151581287384033e-01
3.481102585792541504e-01
2.531969249248504639e-01
6.008433103561401367e-01
6.651440858840942383e-01
7.424455285072326660e-01
7.536894083023071289e-01
6.595221161842346191e-01
4.964863061904907227e-01
3.517217040061950684e-01
3.021785020828247070e-01
3.594518601894378662e-01
4.613492488861083984e-01
5.379480123519897461e-01
5.678144693374633789e-01
5.881939530372619629e-01
6.514406204223632812e-01
7.673928141593933105e-01
8.742094039916992188e-01
8.875615000724792480e-01
7.663387060165405273e-01
5.614898204803466797e-01
3.914265632629394531e-01
3.468025326728820801e-01
4.371047019958496094e-01
5.811665654182434082e-01
6.700632572174072266e-01
6.444132328033447266e-01
5.270555019378662109e-01
4.089950919151306152e-01
3.819395601749420166e-01
4.803232550621032715e-01
6.535488367080688477e-01
8.011243939399719238e-01
8.232607245445251465e-01
6.841180324554443359e-01
4.444834887981414795e-01
2.189037203788757324e-01
1.215741410851478577e-01
1.890372484922409058e-01
3.738580346107482910e-01
5.706254243850708008e-01
6.862263083457946777e-01
7.016865611076354980e-01
6.669009327888488770e-01
6.507378816604614258e-01
6.732255816459655762e-01
6.865776777267456055e-01
6.212227940559387207e-01
4.606465101242065430e-01
2.656359672546386719e-01
1.416022479534149170e-01
1.619817316532135010e-01
3.176387846469879150e-01
5.182712674140930176e-01
6.637386083602905273e-01
6.918482184410095215e-01
6.229796409606933594e-01
5.354884266853332520e-01
5.154603123664855957e-01
5.899507999420166016e-01
7.101194858551025391e-01
7.888264060020446777e-01
7.744202613830566406e-01
6.855235695838928223e-01
5.874912142753601074e-01
5.330288410186767578e-01
5.098383426666259766e-01
4.722417294979095459e-01
3.917779326438903809e-01
3.081517815589904785e-01
2.955024540424346924e-01
4.051299989223480225e-01
6.208714246749877930e-01
8.552353978157043457e-01
1.000000000000000000e+00
9.778636693954467773e-01
7.832044959068298340e-01
4.880534112453460693e-01
1.971187591552734375e-01
1.475755404680967331e-02
0.000000000000000000e+00
1.461700648069381714e-01
3.879128694534301758e-01
6.338720917701721191e-01
7.951511144638061523e-01
8.246662020683288574e-01
7.259311079978942871e-01
5.737877488136291504e-01
4.634574949741363525e-01
4.585382938385009766e-01
5.425158143043518066e-01
6.321152448654174805e-01
6.412508487701416016e-01
5.442726612091064453e-01
3.956429958343505859e-01
2.969079315662384033e-01
3.102600276470184326e-01
4.205903112888336182e-01
5.628952980041503906e-01
6.647927165031433105e-01
6.914968490600585938e-01
6.605762243270874023e-01
6.187631487846374512e-01
6.064652204513549805e-01
6.229796409606933594e-01
6.321152448654174805e-01
6.071679592132568359e-01
5.544624328613281250e-01
5.031623244285583496e-01
4.694307744503021240e-01
4.441321194171905518e-01
3.998594582080841064e-01
3.436402082443237305e-01
3.246662020683288574e-01
3.836964070796966553e-01
5.105410814285278320e-01
6.261419653892517090e-01
6.574138998985290527e-01
5.853829979896545410e-01
4.729444980621337891e-01
4.054813683032989502e-01
4.311314225196838379e-01
5.186226367950439453e-01
5.920590162277221680e-01
5.938158631324768066e-01
5.228390693664550781e-01
4.392129182815551758e-01
4.184820950031280518e-01
4.975404143333435059e-01
6.489810347557067871e-01
7.926914691925048828e-01
8.492621183395385742e-01
7.835558652877807617e-01
6.268447041511535645e-01
4.638088643550872803e-01
3.833450376987457275e-01
4.230498969554901123e-01
5.498945713043212891e-01
6.802529692649841309e-01
7.340126633644104004e-01
6.841180324554443359e-01
5.607870817184448242e-01
4.416725337505340576e-01
3.910751938819885254e-01
4.423752725124359131e-01
5.716795325279235840e-01
7.136331796646118164e-01
7.884750366210937500e-01
7.456078529357910156e-01
5.871398448944091797e-01
3.759662806987762451e-01
1.914968341588973999e-01
1.113843992352485657e-01
1.560084372758865356e-01
2.958538234233856201e-01
4.543218612670898438e-01
5.516514182090759277e-01
5.572733879089355469e-01
4.989458918571472168e-01
4.560787081718444824e-01
4.996486306190490723e-01
6.440618634223937988e-01
8.281798958778381348e-01
9.479972124099731445e-01
9.265636205673217773e-01
7.617709040641784668e-01
5.302178263664245605e-01
3.457484245300292969e-01
2.842586040496826172e-01
3.408292233943939209e-01
4.434293806552886963e-01
5.284609794616699219e-01
5.727336406707763672e-01
6.040056347846984863e-01
6.366830468177795410e-01
6.524947285652160645e-01
6.127898693084716797e-01
5.073787569999694824e-01
3.851018846035003662e-01
3.169360458850860596e-01
3.383696377277374268e-01
4.223471581935882568e-01
5.021082162857055664e-01
5.312719345092773438e-01
5.193253755569458008e-01
5.245959162712097168e-01
5.846802592277526855e-01
6.823611855506896973e-01
7.417427897453308105e-01
6.932536959648132324e-01
5.368939042091369629e-01
3.499648571014404297e-01
2.413914203643798828e-01
2.730147540569305420e-01
4.272663295269012451e-01
6.194658875465393066e-01
7.550948858261108398e-01
7.765284776687622070e-01
6.911454796791076660e-01
5.621925592422485352e-01
4.778636693954467773e-01
4.922698438167572021e-01
4.599303007125854492e-01
4.825783967971801758e-01
5.479093790054321289e-01
5.979965329170227051e-01
5.614111423492431641e-01
4.351045191287994385e-01
2.944251000881195068e-01
2.404181212186813354e-01
3.227351903915405273e-01
5.030487775802612305e-01
6.872822046279907227e-01
7.891985774040222168e-01
7.722125649452209473e-01
6.541811823844909668e-01
5.065330862998962402e-01
4.046167135238647461e-01
3.876306712627410889e-01
4.242160320281982422e-01
4.459930360317230225e-01
3.959059119224548340e-01
2.900696992874145508e-01
1.964285671710968018e-01
1.959930360317230225e-01
3.087978959083557129e-01
4.895470440387725830e-01
6.520034670829772949e-01
7.182055711746215820e-01
6.624564528465270996e-01
5.326654911041259766e-01
4.124564528465270996e-01
3.645470440387725830e-01
3.802264928817749023e-01
3.941637575626373291e-01
3.523519039154052734e-01
2.665505111217498779e-01
2.012195140123367310e-01
2.160278707742691040e-01
2.926829159259796143e-01
3.741289079189300537e-01
4.263937175273895264e-01
4.708188176155090332e-01
5.457317233085632324e-01
6.441637873649597168e-01
7.081881761550903320e-01
6.851045489311218262e-01
5.831881761550903320e-01
4.729965031147003174e-01
4.224738776683807373e-01
4.407665431499481201e-01
4.808362424373626709e-01
5.091463327407836914e-01
5.278745889663696289e-01
5.627177953720092773e-01
6.019163727760314941e-01
5.936411023139953613e-01
4.969512224197387695e-01
3.349303007125854492e-01
1.986062675714492798e-01
1.790069639682769775e-01
3.013937175273895264e-01
4.930313527584075928e-01
6.432926654815673828e-01
6.833623647689819336e-01
6.219512224197387695e-01
5.352787375450134277e-01
5.087108016014099121e-01
5.853658318519592285e-01
7.364982366561889648e-01
8.767421841621398926e-01
8.967769742012023926e-01
7.452090382575988770e-01
4.612369239330291748e-01
1.668118536472320557e-01
0.000000000000000000e+00
2.003484405577182770e-02
1.702961623668670654e-01
3.288327455520629883e-01
4.059233367443084717e-01
4.076654911041259766e-01
4.220383167266845703e-01
5.069686174392700195e-01
6.441637873649597168e-01
7.404181361198425293e-01
7.173345088958740234e-01
5.866724848747253418e-01
4.547038376331329346e-01
4.233449399471282959e-01
5.078397393226623535e-01
6.276132464408874512e-01
6.824913024902343750e-01
6.398083567619323730e-01
5.466027855873107910e-01
4.817073047161102295e-01
4.764808416366577148e-01
4.825783967971801758e-01
4.420731663703918457e-01
3.453832864761352539e-01
2.482578456401824951e-01
2.216898947954177856e-01
2.909407615661621094e-01
4.137630760669708252e-01
5.169860720634460449e-01
5.722996592521667480e-01
5.997386574745178223e-01
6.332752704620361328e-01
6.615853905677795410e-01
6.393728256225585938e-01
5.230836272239685059e-01
3.392857015132904053e-01
1.716027855873107910e-01
1.080139353871345520e-01
1.637630611658096313e-01
2.678571343421936035e-01
3.371080160140991211e-01
3.327526152133941650e-01
3.000870943069458008e-01
3.218640983104705811e-01
4.529616832733154297e-01
6.750870943069458008e-01
8.945993185043334961e-01
1.000000000000000000e+00
9.216027855873107910e-01
6.907665729522705078e-01
4.107142984867095947e-01
2.199477404356002808e-01
1.959930360317230225e-01
3.253484368324279785e-01
5.130661725997924805e-01
6.385017633438110352e-01
6.297909617424011230e-01
5.013065934181213379e-01
3.479965031147003174e-01
2.700348496437072754e-01
3.188153207302093506e-01
4.503484368324279785e-01
5.583623647689819336e-01
5.561846494674682617e-01
4.425086975097656250e-01
3.101045191287994385e-01
2.556620240211486816e-01
3.109756112098693848e-01
4.198606312274932861e-01
4.965156912803649902e-01
5.065330862998962402e-01
5.013065934181213379e-01
5.448606014251708984e-01
6.454703807830810547e-01
7.286585569381713867e-01
6.946864128112792969e-01
5.091463327407836914e-01
2.456445991992950439e-01
4.398954659700393677e-02
1.088850200176239014e-02
1.533101052045822144e-01
3.680313527584075928e-01
5.182926654815673828e-01
5.344076752662658691e-01
4.560104608535766602e-01
3.911149799823760986e-01
4.320557415485382080e-01
5.714285969734191895e-01
7.155923247337341309e-01
7.687281966209411621e-01
7.134146094322204590e-01
6.110627055168151855e-01
5.396341681480407715e-01
5.152438879013061523e-01
4.908536672592163086e-01
4.137630760669708252e-01
2.948606312274932861e-01
2.094947695732116699e-01
2.221254408359527588e-01
3.218640983104705811e-01
4.198606312274932861e-01
4.385888576507568359e-01
3.802264928817749023e-01
3.249129056930541992e-01
3.580139279365539551e-01
4.886759519577026367e-01
6.389372944831848145e-01
7.060104608535766602e-01
6.398083567619323730e-01
4.939024448394775391e-01
3.732578456401824951e-01
3.671602904796600342e-01
4.799651503562927246e-01
6.332752704620361328e-01
7.164633870124816895e-01
6.624564528465270996e-01
4.978223145008087158e-01
3.209930360317230225e-01
2.439024448394775391e-01
3.040069639682769775e-01
4.468640983104705811e-01
5.753484368324279785e-01
6.263065934181213379e-01
6.093205809593200684e-01
5.749129056930541992e-01
5.496515631675720215e-01
5.108885169029235840e-01
2.939521670341491699e-01
2.053445875644683838e-01
2.311298698186874390e-01
3.867791891098022461e-01
6.075949072837829590e-01
7.815283536911010742e-01
8.504453897476196289e-01
8.476324677467346191e-01
8.415377140045166016e-01
8.659165501594543457e-01
8.687294721603393555e-01
7.744960188865661621e-01
5.578996539115905762e-01
3.014533519744873047e-01
1.368963867425918579e-01
1.453352123498916626e-01
2.944210171699523926e-01
4.603844285011291504e-01
5.527426004409790039e-01
5.738396644592285156e-01
5.991561412811279297e-01
6.816689968109130859e-01
7.932489514350891113e-01
8.509141802787780762e-01
8.120018839836120605e-01
7.107360363006591797e-01
6.310361027717590332e-01
6.127520203590393066e-01
6.338490247726440430e-01
6.436943411827087402e-01
6.338490247726440430e-01
6.390060782432556152e-01
6.849507689476013184e-01
7.355836629867553711e-01
7.191748619079589844e-01
5.958743691444396973e-01
4.242850542068481445e-01
3.061415851116180420e-01
3.155180513858795166e-01
4.261603355407714844e-01
5.513361692428588867e-01
6.179090738296508789e-01
6.235349178314208984e-01
6.127520203590393066e-01
5.986872911453247070e-01
5.602437853813171387e-01
4.730426669120788574e-01
3.656821250915527344e-01
3.047351241111755371e-01
3.356774449348449707e-01
4.378809332847595215e-01
5.283638238906860352e-01
5.452414155006408691e-01
5.110173225402832031e-01
5.067979097366333008e-01
5.766525864601135254e-01
6.872949004173278809e-01
7.473042607307434082e-01
6.938584446907043457e-01
5.597749352455139160e-01
4.397562146186828613e-01
4.088138639926910400e-01
4.556961953639984131e-01
5.124238133430480957e-01
5.372714400291442871e-01
5.593061447143554688e-01
6.352555155754089355e-01
7.707454562187194824e-01
8.832629919052124023e-01
8.602906465530395508e-01
6.619784235954284668e-01
3.591186106204986572e-01
9.657759219408035278e-02
0.000000000000000000e+00
1.017346456646919250e-01
3.436474502086639404e-01
6.057196259498596191e-01
7.890295386314392090e-01
8.476324677467346191e-01
8.120018839836120605e-01
7.505860328674316406e-01
7.055789828300476074e-01
6.596342921257019043e-01
5.630567073822021484e-01
4.078762233257293701e-01
2.550398409366607666e-01
2.184716314077377319e-01
3.511486053466796875e-01
6.047819852828979492e-01
8.499765396118164062e-01
9.859353303909301758e-01
1.000000000000000000e+00
9.446788430213928223e-01
8.645100593566894531e-01
7.787154316902160645e-01
6.872949004173278809e-01
6.061884760856628418e-01
5.518049597740173340e-01
5.307078957557678223e-01
5.330520272254943848e-01
5.593061447143554688e-01
6.183778643608093262e-01
7.158930897712707520e-01
8.082512617111206055e-01
8.481012582778930664e-01
8.152836561203002930e-01
7.454289793968200684e-01
6.910454630851745605e-01
6.708860993385314941e-01
6.568213701248168945e-01
6.286919713020324707e-01
6.174402236938476562e-01
6.821378469467163086e-01
8.265354037284851074e-01
9.723394513130187988e-01
9.985935091972351074e-01
8.452883362770080566e-01
5.794655680656433105e-01
3.624003827571868896e-01
3.155180513858795166e-01
4.491326808929443359e-01
6.455696225166320801e-01
7.660571932792663574e-01
7.515236735343933105e-01
6.460384726524353027e-01
5.485231876373291016e-01
5.133614540100097656e-01
5.100796818733215332e-01
4.763244390487670898e-01
3.820909559726715088e-01
2.742615938186645508e-01
2.353492677211761475e-01
3.080168664455413818e-01
4.589779675006866455e-01
6.066572666168212891e-01
6.854196190834045410e-01
6.769807934761047363e-01
5.935302376747131348e-01
4.585091471672058105e-01
3.047351241111755371e-01
1.931551843881607056e-01
1.804969459772109985e-01
2.798874676227569580e-01
4.378809332847595215e-01
5.691514015197753906e-01
6.338490247726440430e-01
6.643225550651550293e-01
7.041725516319274902e-01
7.533989548683166504e-01
7.744960188865661621e-01
7.398030757904052734e-01
6.769807934761047363e-01
6.371307969093322754e-01
6.526019573211669922e-01
6.835442781448364258e-01
6.741678118705749512e-01
6.080637574195861816e-01
5.260196924209594727e-01
4.739803075790405273e-01
4.542897343635559082e-01
4.285044670104980469e-01
3.670886158943176270e-01
2.850445508956909180e-01
2.226910442113876343e-01
2.151898741722106934e-01
2.700421810150146484e-01
3.656821250915527344e-01
4.622597396373748779e-01
5.161743760108947754e-01
4.917955994606018066e-01
3.970932960510253906e-01
2.986404001712799072e-01
2.803563177585601807e-01
3.741209506988525391e-01
5.222691297531127930e-01
6.165025830268859863e-01
5.944678783416748047e-01
4.828879535198211670e-01
3.684950768947601318e-01
3.145804107189178467e-01
3.122362792491912842e-01
3.305203914642333984e-01
3.366150856018066406e-01
3.413033187389373779e-01
3.858415484428405762e-01
4.960150122642517090e-01
6.577590107917785645e-01
8.063759803771972656e-01
8.598218560218811035e-01
7.749648094177246094e-01
5.799343585968017578e-01
3.745897710323333740e-01
2.695733606815338135e-01
3.108298182487487793e-01
4.435068070888519287e-01
5.794655680656433105e-01
6.610407829284667969e-01
6.826066374778747559e-01
6.629160642623901367e-01
6.066572666168212891e-01
5.139005780220031738e-01
5.265374779701232910e-01
5.947767496109008789e-01
6.958719491958618164e-01
8.188710808753967285e-01
9.292333722114562988e-01
9.561920762062072754e-01
8.374052047729492188e-01
5.922493934631347656e-01
3.597304224967956543e-01
2.948609888553619385e-01
4.363942742347717285e-01
6.638584733009338379e-01
8.213984966278076172e-01
8.483572006225585938e-01
7.961246967315673828e-01
7.641112208366394043e-01
7.607413530349731445e-01
7.101937532424926758e-01
5.695029497146606445e-01
3.959561884403228760e-01
3.192923367023468018e-01
4.026958644390106201e-01
5.770850777626037598e-01
6.950294971466064453e-01
6.545913815498352051e-01
4.599831402301788330e-01
2.342038750648498535e-01
9.604043513536453247e-02
8.171861618757247925e-02
1.356360614299774170e-01
2.021903991699218750e-01
2.620050609111785889e-01
3.428812026977539062e-01
4.768323600292205811e-01
6.596461534500122070e-01
8.517270684242248535e-01
9.831507802009582520e-01
1.000000000000000000e+00
8.871103525161743164e-01
6.908171772956848145e-01
4.869418740272521973e-01
3.816343843936920166e-01
4.001684784889221191e-01
4.886267781257629395e-01
5.551811456680297852e-01
5.248525738716125488e-01
4.473462402820587158e-01
4.380791783332824707e-01
5.484414696693420410e-01
7.093513011932373047e-01
7.759056687355041504e-01
6.815501451492309570e-01
4.726200401782989502e-01
2.653748989105224609e-01
1.870261132717132568e-01
2.603201270103454590e-01
4.229149222373962402e-01
5.475990176200866699e-01
5.661330819129943848e-01
4.970513880252838135e-01
4.069081842899322510e-01
3.698399364948272705e-01
3.984835743904113770e-01
4.549283981323242188e-01
5.113732218742370605e-01
5.880370736122131348e-01
7.177758812904357910e-01
8.744734525680541992e-01
9.401853680610656738e-01
8.045492768287658691e-01
4.903117120265960693e-01
1.600673943758010864e-01
0.000000000000000000e+00
7.245156168937683105e-02
2.620050609111785889e-01
3.833192884922027588e-01
3.614153265953063965e-01
2.417860180139541626e-01
1.229991540312767029e-01
5.223251879215240479e-02
1.684919930994510651e-02
2.527379989624023438e-02
1.019376590847969055e-01
2.737995088100433350e-01
5.256950259208679199e-01
7.649536728858947754e-01
8.921651244163513184e-01
8.753159046173095703e-01
7.851727008819580078e-01
7.186183929443359375e-01
7.186183929443359375e-01
7.481044530868530273e-01
7.346251010894775391e-01
6.453243494033813477e-01
5.366470217704772949e-01
4.936815500259399414e-01
5.450716018676757812e-01
6.200505495071411133e-01
6.023588776588439941e-01
4.667228162288665771e-01
3.142375648021697998e-01
2.603201270103454590e-01
3.411962985992431641e-01
4.684077501296997070e-01
5.341196060180664062e-01
5.147430300712585449e-01
4.532434642314910889e-01
4.363942742347717285e-01
4.852569401264190674e-01
5.661330819129943848e-01
6.040437817573547363e-01
5.534961819648742676e-01
4.650379121303558350e-01
4.254422783851623535e-01
4.835720360279083252e-01
5.914068818092346191e-01
6.596461534500122070e-01
6.310025453567504883e-01
5.299073457717895508e-01
4.304970502853393555e-01
3.850042223930358887e-01
3.681550025939941406e-01
3.639427125453948975e-01
3.833192884922027588e-01
4.625105261802673340e-01
5.787699818611145020e-01
6.394271254539489746e-01
5.669755935668945312e-01
4.010109603404998779e-01
2.687447369098663330e-01
2.712721228599548340e-01
3.875315785408020020e-01
5.164279937744140625e-01
5.922493934631347656e-01
6.411120295524597168e-01
7.337826490402221680e-01
8.618365526199340820e-01
9.275484681129455566e-01
8.500421047210693359e-01
6.588037014007568359e-01
4.692502021789550781e-01
3.698399364948272705e-01
3.496208786964416504e-01
3.327716886997222900e-01
3.100252747535705566e-01
3.251895606517791748e-01
4.237573742866516113e-01
5.526537299156188965e-01
6.082561016082763672e-01
5.290648937225341797e-01
3.487784266471862793e-01
1.668070703744888306e-01
7.245156168937683105e-02
8.340353518724441528e-02
1.347935944795608521e-01
1.777590513229370117e-01
1.954507231712341309e-01
2.005054801702499390e-01
1.979780942201614380e-01
2.165122181177139282e-01
2.729570269584655762e-01
3.605728745460510254e-01
4.524010121822357178e-01
5.358045697212219238e-01
6.099410057067871094e-01
6.503791213035583496e-01
6.427969932556152344e-01
6.015164256095886230e-01
5.711878538131713867e-01
5.619208216667175293e-01
5.400168299674987793e-01
4.633529782295227051e-01
3.150800466537475586e-01
1.524852514266967773e-01
8.761584013700485229e-02
1.895534992218017578e-01
4.102780222892761230e-01
6.385846734046936035e-01
7.868576049804687500e-01
8.247683048248291016e-01
7.733782529830932617e-01
6.326874494552612305e-01
4.347093403339385986e-01
2.451558560132980347e-01
1.701769232749938965e-01
2.628475129604339600e-01
4.734625220298767090e-01
7.000842690467834473e-01
8.433024287223815918e-01
8.626790046691894531e-01
7.582139968872070312e-01
5.585509538650512695e-01
3.251895606517791748e-01
1.727042943239212036e-01
1.912384182214736938e-01
3.765796124935150146e-01
6.436394453048706055e-01
8.508845567703247070e-01
8.921651244163513184e-01
4.707637131214141846e-01
4.815035760402679443e-01
5.065632462501525879e-01
5.363962054252624512e-01
5.322195887565612793e-01
4.850835204124450684e-01
4.266109764575958252e-01
3.878281712532043457e-01
4.087112247943878174e-01
4.815035760402679443e-01
5.686157345771789551e-01
6.324582099914550781e-01
6.593078970909118652e-01
6.730310320854187012e-01
6.778042912483215332e-01
6.563245654106140137e-01
5.942720770835876465e-01
4.976133704185485840e-01
4.105011820793151855e-01
3.669451177120208740e-01
3.705250620841979980e-01
4.033412933349609375e-01
4.081145524978637695e-01
3.418854475021362305e-01
2.094272077083587646e-01
7.458233833312988281e-02
0.000000000000000000e+00
1.730310171842575073e-02
1.062052473425865173e-01
2.064439207315444946e-01
2.822195589542388916e-01
3.287589550018310547e-01
3.741050064563751221e-01
4.355608522891998291e-01
4.892601370811462402e-01
4.982100129127502441e-01
4.582338929176330566e-01
4.033412933349609375e-01
3.591885566711425781e-01
3.239856660366058350e-01
2.828162312507629395e-01
2.392601370811462402e-01
2.177804261445999146e-01
2.410501241683959961e-01
3.066825866699218750e-01
3.896181285381317139e-01
4.522672891616821289e-01
4.844868779182434082e-01
5.095465183258056641e-01
5.477327108383178711e-01
5.936754345893859863e-01
6.300715804100036621e-01
6.229116916656494141e-01
5.322195887565612793e-01
3.621718287467956543e-01
1.706443876028060913e-01
4.534606263041496277e-02
3.639618307352066040e-02
1.426014304161071777e-01
3.186157643795013428e-01
4.928400814533233643e-01
5.948687195777893066e-01
5.889021754264831543e-01
4.785202741622924805e-01
3.042959570884704590e-01
1.426014304161071777e-01
8.174224197864532471e-02
1.593078821897506714e-01
3.156324625015258789e-01
4.206444025039672852e-01
3.872314989566802979e-01
2.291169464588165283e-01
6.801909208297729492e-02
3.758949786424636841e-02
1.801909357309341431e-01
4.140811562538146973e-01
6.103818416595458984e-01
6.873508095741271973e-01
6.420047879219055176e-01
5.352028608322143555e-01
4.164677858352661133e-01
3.138424754142761230e-01
2.398567944765090942e-01
2.344868779182434082e-01
3.168257772922515869e-01
4.516706466674804688e-01
5.560859441757202148e-01
5.554892420768737793e-01
4.504773318767547607e-01
3.025059700012207031e-01
2.094272077083587646e-01
2.183770835399627686e-01
3.019092977046966553e-01
3.955847322940826416e-01
4.707637131214141846e-01
5.405728220939636230e-01
6.414080858230590820e-01
7.816228866577148438e-01
9.254176616668701172e-01
1.000000000000000000e+00
9.636037945747375488e-01
8.281623125076293945e-01
6.503580212593078613e-01
5.023866295814514160e-01
4.254176616668701172e-01
4.128878414630889893e-01
4.457040429115295410e-01
4.832935631275177002e-01
5.000000000000000000e-01
5.029832720756530762e-01
4.934367537498474121e-01
4.761336445808410645e-01
4.546539485454559326e-01
4.242243468761444092e-01
3.782816231250762939e-01
3.186157643795013428e-01
2.452267259359359741e-01
1.605011969804763794e-01
7.756563276052474976e-02
2.923627756536006927e-02
4.773269593715667725e-02
1.300715953111648560e-01
2.273269742727279663e-01
2.852028608322143555e-01
2.947494089603424072e-01
2.822195589542388916e-01
2.852028608322143555e-01
3.341288864612579346e-01
4.289976060390472412e-01
5.578758716583251953e-01
6.992840170860290527e-01
8.084725737571716309e-01
8.299522399902343750e-01
7.374701499938964844e-01
5.894988179206848145e-01
4.701670706272125244e-01
4.385441541671752930e-01
4.952267408370971680e-01
5.763723254203796387e-01
6.461814045906066895e-01
6.784009337425231934e-01
6.784009337425231934e-01
6.467780470848083496e-01
5.984486937522888184e-01
5.489259958267211914e-01
5.244629979133605957e-01
5.274463295936584473e-01
5.459427237510681152e-01
5.775656104087829590e-01
6.258949637413024902e-01
6.748210191726684570e-01
7.118138670921325684e-01
7.010740041732788086e-01
6.133651733398437500e-01
4.731503725051879883e-01
3.394988179206848145e-01
2.708830535411834717e-01
2.965393662452697754e-01
3.860381841659545898e-01
4.940334260463714600e-01
5.608592033386230469e-01
5.692124366760253906e-01
5.411694645881652832e-01
5.119331479072570801e-01
4.958233833312988281e-01
4.970166981220245361e-01
5.167064666748046875e-01
5.483293533325195312e-01
5.906921029090881348e-01
6.300715804100036621e-01
6.587111949920654297e-01
6.682577729225158691e-01
6.766110062599182129e-01
6.730310320854187012e-01
6.300715804100036621e-01
5.214797258377075195e-01
3.723150491714477539e-01
2.374701648950576782e-01
1.587112098932266235e-01
1.354415267705917358e-01
1.235083565115928650e-01
1.073985695838928223e-01
1.014319807291030884e-01
1.431980878114700317e-01
2.428400963544845581e-01
3.627685010433197021e-01
4.552505910396575928e-01
5.125298500061035156e-01
5.620524883270263672e-01
6.103818416595458984e-01
6.336515545845031738e-01
5.966587066650390625e-01
4.952267408370971680e-01
3.747016787528991699e-01
3.054892718791961670e-01
3.275656402111053467e-01
4.164677858352661133e-01
4.886634945869445801e-01
4.731503725051879883e-01
3.818615674972534180e-01
8.001364469528198242e-01
9.447476267814636230e-01
1.000000000000000000e+00
9.474761486053466797e-01
8.519781827926635742e-01
7.871760129928588867e-01
7.851296067237854004e-01
8.137789964675903320e-01
8.240109086036682129e-01
8.042291998863220215e-01
7.585266232490539551e-01
6.923601627349853516e-01
6.023192405700683594e-01
5.170531868934631348e-01
4.720327556133270264e-01
4.993178844451904297e-01
6.050477623939514160e-01
7.251023054122924805e-01
7.837653756141662598e-01
7.530695796012878418e-01
6.691678166389465332e-01
6.002728343009948730e-01
5.579808950424194336e-01
5.218281149864196777e-01
4.638471901416778564e-01
3.765347898006439209e-01
2.933151423931121826e-01
2.673942744731903076e-01
3.328785896301269531e-01
4.563437998294830322e-01
5.736698508262634277e-01
6.296043395996093750e-01
6.084583997726440430e-01
5.552523732185363770e-01
5.013642311096191406e-01
4.672578573226928711e-01
4.631650745868682861e-01
4.822646677494049072e-01
5.272851586341857910e-01
5.914052128791809082e-01
6.459754705429077148e-01
6.357434988021850586e-01
5.538881421089172363e-01
4.324693083763122559e-01
3.376534879207611084e-01
2.946794033050537109e-01
3.028649389743804932e-01
3.178717494010925293e-01
3.083219528198242188e-01
2.687585353851318359e-01
2.271486967802047729e-01
2.087312340736389160e-01
2.128240168094635010e-01
2.462482899427413940e-01
3.001364171504974365e-01
3.697135150432586670e-01
4.467940032482147217e-01
5.327421426773071289e-01
6.132332682609558105e-01
6.623465418815612793e-01
6.589359045028686523e-01
5.968621969223022461e-01
5.027285218238830566e-01
4.324693083763122559e-01
4.024556577205657959e-01
3.956343829631805420e-01
3.854024410247802734e-01
3.553888201713562012e-01
3.390177488327026367e-01
3.894952237606048584e-01
5.347885489463806152e-01
7.216916680335998535e-01
8.431105017662048340e-01
8.240109086036682129e-01
6.630286574363708496e-01
4.502046406269073486e-01
2.871759831905364990e-01
2.530695796012878418e-01
3.526602983474731445e-01
5.034106373786926270e-01
6.125511527061462402e-01
6.330150365829467773e-01
5.566166639328002930e-01
4.270122647285461426e-01
3.124147355556488037e-01
2.571623325347900391e-01
2.673942744731903076e-01
3.233287930488586426e-01
3.731241524219512939e-01
4.051841795444488525e-01
4.195088744163513184e-01
4.413369596004486084e-01
4.795361459255218506e-01
5.511596202850341797e-01
6.234652400016784668e-01
6.439290642738342285e-01
5.832196474075317383e-01
4.440654814243316650e-01
2.899045050144195557e-01
2.012278288602828979e-01
2.128240168094635010e-01
2.851296067237854004e-01
3.485675454139709473e-01
3.417462408542633057e-01
2.769440710544586182e-01
2.278308272361755371e-01
2.373806238174438477e-01
3.035470545291900635e-01
3.956343829631805420e-01
4.693042337894439697e-01
4.959072172641754150e-01
4.577080607414245605e-01
3.465211391448974609e-01
1.875852644443511963e-01
4.911323264241218567e-02
0.000000000000000000e+00
7.776261866092681885e-02
2.366984933614730835e-01
4.038199186325073242e-01
5.211459994316101074e-01
5.757162570953369141e-01
5.804911255836486816e-01
5.641200542449951172e-01
5.504775047302246094e-01
5.457025766372680664e-01
5.600273013114929199e-01
5.695770978927612305e-01
5.341064333915710449e-01
4.249658882617950439e-01
2.619372308254241943e-01
1.152796745300292969e-01
5.798089876770973206e-02
1.118690297007560730e-01
2.564802169799804688e-01
4.072305560111999512e-01
5.129604339599609375e-01
5.566166639328002930e-01
5.613915324211120605e-01
5.586630105972290039e-01
5.770804882049560547e-01
6.275579929351806641e-01
6.725784540176391602e-01
6.712141633033752441e-01
6.207367181777954102e-01
5.450204610824584961e-01
4.904502034187316895e-01
4.904502034187316895e-01
5.381991863250732422e-01
5.968621969223022461e-01
6.098226308822631836e-01
5.866302847862243652e-01
5.613915324211120605e-01
5.497953891754150391e-01
5.388813018798828125e-01
4.965893626213073730e-01
4.195088744163513184e-01
3.526602983474731445e-01
3.649386167526245117e-01
4.754433929920196533e-01
6.330150365829467773e-01
7.551159858703613281e-01
7.844474911689758301e-01
7.482946515083312988e-01
7.100955247879028320e-01
6.978172063827514648e-01
6.991814374923706055e-01
6.746248006820678711e-01
5.968621969223022461e-01
4.972714781761169434e-01
4.311050474643707275e-01
4.147339761257171631e-01
4.236016273498535156e-01
4.256480336189270020e-01
4.079127013683319092e-01
3.894952237606048584e-01
3.833560645580291748e-01
4.120054543018341064e-01
4.774897694587707520e-01
5.443383455276489258e-01
5.784447193145751953e-01
5.709413290023803711e-01
5.211459994316101074e-01
4.379263222217559814e-01
3.669849932193756104e-01
3.594815731048583984e-01
4.133697152137756348e-01
4.686220884323120117e-01
4.638471901416778564e-01
3.901773393154144287e-01
2.905866205692291260e-01
2.435197830200195312e-01
2.892223596572875977e-01
4.010913968086242676e-01
5.115962028503417969e-01
5.886766910552978516e-01
6.473397016525268555e-01
6.889495253562927246e-01
7.080491185188293457e-01
6.753069758415222168e-01
5.866302847862243652e-01
1.081470772624015808e-02
1.088680624961853027e-01
2.566690742969512939e-01
3.835616409778594971e-01
4.340302944183349609e-01
4.138428270816802979e-01
3.640951812267303467e-01
3.093006610870361328e-01
2.516222000122070312e-01
1.925017982721328735e-01
1.413121819496154785e-01
1.067051216959953308e-01
9.949531406164169312e-02
9.949531406164169312e-02
1.059841364622116089e-01
1.297764927148818970e-01
1.751982718706130981e-01
2.487382888793945312e-01
3.244412541389465332e-01
3.886085152626037598e-01
4.181687235832214355e-01
4.124008715152740479e-01
3.576063513755798340e-01
2.638788819313049316e-01
1.780821979045867920e-01
1.506849378347396851e-01
2.162941545248031616e-01
3.446286916732788086e-01
4.780100882053375244e-01
5.674116611480712891e-01
6.171593070030212402e-01
6.467195153236389160e-01
6.712328791618347168e-01
6.770007014274597168e-01
6.503244638442993164e-01
5.919250249862670898e-01
5.457822680473327637e-01
5.407354235649108887e-01
5.832732319831848145e-01
6.423936486244201660e-01
6.726748347282409668e-01
6.402307152748107910e-01
5.573179721832275391e-01
4.491708576679229736e-01
3.554433882236480713e-01
3.136265277862548828e-01
3.229992687702178955e-01
3.813987076282501221e-01
4.729632437229156494e-01
5.681326389312744141e-01
6.517664194107055664e-01
7.000721096992492676e-01
6.964672207832336426e-01
6.452775597572326660e-01
5.479452013969421387e-01
4.311463534832000732e-01
3.366979062557220459e-01
2.956020236015319824e-01
3.193943798542022705e-01
3.886085152626037598e-01
4.614275395870208740e-01
5.075702667236328125e-01
5.219898819923400879e-01
5.039653778076171875e-01
4.571016728878021240e-01
3.799567520618438721e-01
2.732516229152679443e-01
1.672674864530563354e-01
1.232876703143119812e-01
1.867339611053466797e-01
3.547224104404449463e-01
5.796683430671691895e-01
7.671232819557189941e-01
8.457101583480834961e-01
7.901946902275085449e-01
6.265320777893066406e-01
4.470079243183135986e-01
3.172314465045928955e-01
2.710886895656585693e-01
2.934390902519226074e-01
3.330930173397064209e-01
3.633742034435272217e-01
3.922134041786193848e-01
4.412400722503662109e-01
5.234318375587463379e-01
6.236481666564941406e-01
7.116078138351440430e-01
7.469358444213867188e-01
7.274693846702575684e-01
6.676279902458190918e-01
5.883201360702514648e-01
5.097332596778869629e-01
4.369142055511474609e-01
3.914924263954162598e-01
3.835616409778594971e-01
4.109589159488677979e-01
4.635904729366302490e-01
5.097332596778869629e-01
5.082913041114807129e-01
4.318673312664031982e-01
2.919971048831939697e-01
1.441961079835891724e-01
3.244412317872047424e-02
0.000000000000000000e+00
5.695746093988418579e-02
1.852919906377792358e-01
3.698630034923553467e-01
5.638067722320556641e-01
7.166546583175659180e-01
7.966834902763366699e-01
7.815428972244262695e-01
7.022350430488586426e-01
6.012977361679077148e-01
5.169430375099182129e-01
4.520547986030578613e-01
4.044700860977172852e-01
3.763518333435058594e-01
3.886085152626037598e-01
4.592646062374114990e-01
5.825522541999816895e-01
7.188175916671752930e-01
8.211968541145324707e-01
8.478730916976928711e-01
7.793799638748168945e-01
6.445565819740295410e-01
5.010814666748046875e-01
3.972602784633636475e-01
3.525594770908355713e-01
3.453496694564819336e-01
3.540014326572418213e-01
3.684210479259490967e-01
3.922134041786193848e-01
4.224945902824401855e-01
4.354722499847412109e-01
4.080749750137329102e-01
3.518384993076324463e-01
3.172314465045928955e-01
3.532804548740386963e-01
4.679163694381713867e-01
6.200432777404785156e-01
7.404469847679138184e-01
7.772170305252075195e-01
7.152127027511596680e-01
5.695745944976806641e-01
4.001441895961761475e-01
2.631579041481018066e-01
1.982696503400802612e-01
2.148521989583969116e-01
3.006488680839538574e-01
4.405190944671630859e-01
5.875991582870483398e-01
7.080028653144836426e-01
7.894737124443054199e-01
8.262436985969543457e-01
8.356164097785949707e-01
8.327324986457824707e-01
8.298485875129699707e-01
8.089401721954345703e-01
7.584715485572814941e-01
6.654650568962097168e-01
5.587599277496337891e-01
4.650324583053588867e-01
3.958183228969573975e-01
3.540014326572418213e-01
3.366979062557220459e-01
3.540014326572418213e-01
4.390771389007568359e-01
5.933669805526733398e-01
7.873107194900512695e-01
9.423215389251708984e-01
1.000000000000000000e+00
9.488103985786437988e-01
8.082191944122314453e-01
6.409516930580139160e-01
4.895457923412322998e-01
3.914924263954162598e-01
3.792357742786407471e-01
4.434030354022979736e-01
5.508291125297546387e-01
6.423936486244201660e-01
6.618601083755493164e-01
6.142753958702087402e-01
5.501081347465515137e-01
5.126171708106994629e-01
5.169430375099182129e-01
5.349675416946411133e-01
5.270367860794067383e-01
4.917087256908416748e-01
4.513338208198547363e-01
4.109589159488677979e-01
3.785147666931152344e-01
3.532804548740386963e-01
3.503965437412261963e-01
3.698630034923553467e-01
4.044700860977172852e-01
4.239365458488464355e-01
4.095169305801391602e-01
3.785147666931152344e-01
3.619322180747985840e-01
3.669790923595428467e-01
3.718937337398529053e-01
3.684661388397216797e-01
3.530419766902923584e-01
3.084833025932312012e-01
2.339331656694412231e-01
1.628106236457824707e-01
1.431019753217697144e-01
2.202227860689163208e-01
3.847472071647644043e-01
5.766924023628234863e-01
7.180805206298828125e-01
7.686375379562377930e-01
7.583547830581665039e-01
7.420737147331237793e-01
7.540702819824218750e-01
7.754927277565002441e-01
7.557840347290039062e-01
6.649528741836547852e-01
5.261353850364685059e-01
3.976006805896759033e-01
3.247643411159515381e-01
3.119108974933624268e-01
3.607540726661682129e-01
4.524421691894531250e-01
5.732647776603698730e-01
6.949443221092224121e-01
7.934875488281250000e-01
8.414738774299621582e-01
8.226221203804016113e-01
7.446444034576416016e-01
6.195372939109802246e-01
4.841473996639251709e-01
3.658954501152038574e-01
3.033418953418731689e-01
3.239074647426605225e-01
4.198800325393676758e-01
5.501285195350646973e-01
6.461011171340942383e-01
6.692373752593994141e-01
6.238217949867248535e-01
5.415595769882202148e-01
4.644387364387512207e-01
4.190231263637542725e-01
3.958868980407714844e-01
3.881748020648956299e-01
3.967437744140625000e-01
4.327335059642791748e-01
5.158526301383972168e-01
6.409597396850585938e-01
7.677806615829467773e-01
8.508997559547424316e-01
8.577549457550048828e-01
7.763496041297912598e-01
6.281062364578247070e-01
4.575835466384887695e-01
3.204798698425292969e-01
2.630676925182342529e-01
2.784918546676635742e-01
3.496143817901611328e-01
4.378748834133148193e-01
5.055698156356811523e-01
5.312767624855041504e-01
5.132819414138793945e-01
4.747215211391448975e-01
4.335904121398925781e-01
4.198800325393676758e-01
4.618680477142333984e-01
5.526992082595825195e-01
6.426734924316406250e-01
6.555269956588745117e-01
5.424164533615112305e-01
3.161953687667846680e-01
9.083119034767150879e-02
0.000000000000000000e+00
1.242502108216285706e-01
4.190231263637542725e-01
7.489289045333862305e-01
9.657240509986877441e-01
1.000000000000000000e+00
8.877463340759277344e-01
7.266495227813720703e-01
5.878320336341857910e-01
5.132819414138793945e-01
4.764353036880493164e-01
4.532990455627441406e-01
4.224507212638854980e-01
3.736075460910797119e-01
3.016281127929687500e-01
2.296486645936965942e-01
1.910882592201232910e-01
2.227934896945953369e-01
3.427592217922210693e-01
5.295630097389221191e-01
7.146529555320739746e-01
8.234789967536926270e-01
8.166238069534301758e-01
6.915166974067687988e-01
4.978577494621276855e-01
3.007712066173553467e-01
1.559554487466812134e-01
1.079691499471664429e-01
1.705227047204971313e-01
3.204798698425292969e-01
4.952870607376098633e-01
6.075407266616821289e-01
5.869751572608947754e-01
4.310197234153747559e-01
2.219365835189819336e-01
6.940873712301254272e-02
3.170522674918174744e-02
1.045415624976158142e-01
2.185090035200119019e-01
3.204798698425292969e-01
3.881748020648956299e-01
4.592973291873931885e-01
5.655527114868164062e-01
7.249357104301452637e-01
8.877463340759277344e-01
9.845758080482482910e-01
9.597257971763610840e-01
8.191944956779479980e-01
6.246786713600158691e-01
4.764353036880493164e-01
4.387317895889282227e-01
5.089974403381347656e-01
6.263924837112426758e-01
7.215081453323364258e-01
7.352185249328613281e-01
6.709511280059814453e-01
5.886889696121215820e-01
5.681234002113342285e-01
6.229648590087890625e-01
7.112253904342651367e-01
7.446444034576416016e-01
6.752356290817260742e-01
5.252785086631774902e-01
3.813196122646331787e-01
3.093401789665222168e-01
3.367609381675720215e-01
4.275921285152435303e-01
5.304198861122131348e-01
6.092544794082641602e-01
6.426734924316406250e-01
6.118251681327819824e-01
5.089974403381347656e-01
3.761782348155975342e-01
2.664952874183654785e-01
2.287917733192443848e-01
2.647815048694610596e-01
3.461868166923522949e-01
4.370180070400238037e-01
4.970008432865142822e-01
5.269922614097595215e-01
5.115681290626525879e-01
4.704370200634002686e-01
4.215938448905944824e-01
3.856041133403778076e-01
3.890317082405090332e-01
4.258783161640167236e-01
4.815766811370849609e-01
5.441302657127380371e-01
5.955441594123840332e-01
6.341045498847961426e-01
6.478149294853210449e-01
6.392459273338317871e-01
5.955441594123840332e-01
5.364181399345397949e-01
4.798628985881805420e-01
4.507283568382263184e-01
4.695801138877868652e-01
5.475578308105468750e-01
6.709511280059814453e-01
7.943444848060607910e-01
8.551842570304870605e-01
8.020565509796142578e-01
6.409597396850585938e-01
4.318765997886657715e-01
2.596400976181030273e-01
1.799485832452774048e-01
1.876606643199920654e-01
2.305055707693099976e-01
2.853470444679260254e-01
3.504712879657745361e-01
4.541559517383575439e-01
5.921165347099304199e-01
7.300771474838256836e-01
8.114824295043945312e-01
8.123393058776855469e-01
7.386460900306701660e-01
6.383890509605407715e-01
5.415595769882202148e-01
4.575835466384887695e-01
3.898886144161224365e-01
3.136246800422668457e-01
2.502142190933227539e-01
2.227934896945953369e-01
2.476435303688049316e-01
3.170522749423980713e-01
3.976006805896759033e-01
4.498714506626129150e-01
1.101739108562469482e-01
1.079399883747100830e-01
1.082448810338973999e-01
1.118518337607383728e-01
1.176799535751342773e-01
1.237396225333213806e-01
1.286641359329223633e-01
1.324446797370910645e-01
1.357967704534530640e-01
1.393384635448455811e-01
1.432769000530242920e-01
1.474499553442001343e-01
1.515831500291824341e-01
1.554231196641921997e-01
1.587520688772201538e-01
1.618313789367675781e-01
1.652018427848815918e-01
1.690813750028610229e-01
1.733812540769577026e-01
1.778583973646163940e-01
1.824193894863128662e-01
1.874008476734161377e-01
1.929440498352050781e-01
1.987990587949752808e-01
2.043945640325546265e-01
2.092179358005523682e-01
2.130552381277084351e-01
2.158876806497573853e-01
2.178755402565002441e-01
2.193385213613510132e-01
2.208602428436279297e-01
2.227741479873657227e-01
2.247587442398071289e-01
2.259697169065475464e-01
2.257224619388580322e-01
2.242570072412490845e-01
2.229338139295578003e-01
2.230244725942611694e-01
2.249099016189575195e-01
2.275984138250350952e-01
2.293923944234848022e-01
2.289610505104064941e-01
2.260691821575164795e-01
2.215646505355834961e-01
2.161171436309814453e-01
2.096821963787078857e-01
2.017817795276641846e-01
1.919836848974227905e-01
1.807319819927215576e-01
1.688852161169052124e-01
1.568663418292999268e-01
1.448272913694381714e-01
1.330795884132385254e-01
1.228070408105850220e-01
1.157200783491134644e-01
1.128411665558815002e-01
1.135421097278594971e-01
1.158676818013191223e-01
1.171487644314765930e-01
1.150096431374549866e-01
1.086046472191810608e-01
9.917490929365158081e-02
9.037088602781295776e-02
8.860567212104797363e-02
1.017163097858428955e-01
1.372580677270889282e-01
2.006859779357910156e-01
2.936687469482421875e-01
4.129290580749511719e-01
5.495972633361816406e-01
6.895881891250610352e-01
8.164366483688354492e-01
9.155369997024536133e-01
9.776917695999145508e-01
1.000000000000000000e+00
9.837988018989562988e-01
9.310673475265502930e-01
8.428075909614562988e-01
7.211822867393493652e-01
5.738116502761840820e-01
4.159159064292907715e-01
2.675450444221496582e-01
1.467991322278976440e-01
6.352281570434570312e-02
1.728012226521968842e-02
0.000000000000000000e+00
8.517123642377555370e-04
1.005841139703989029e-02
2.073739282786846161e-02
2.889771573245525360e-02
3.352167829871177673e-02
3.588432818651199341e-02
3.827297687530517578e-02
4.241112247109413147e-02
4.861878603696823120e-02
5.611949041485786438e-02
6.409039348363876343e-02
7.200385630130767822e-02
7.964474707841873169e-02
8.654930442571640015e-02
9.215794503688812256e-02
9.615639597177505493e-02
9.906319528818130493e-02
1.019553616642951965e-01
1.055522263050079346e-01
1.097581908106803894e-01
1.138168498873710632e-01
1.169353127479553223e-01
1.186677068471908569e-01
1.191460117697715759e-01
1.189934611320495605e-01
1.189570799469947815e-01
1.195292025804519653e-01
1.207834929227828979e-01
1.221252754330635071e-01
1.228526160120964050e-01
1.228644773364067078e-01
1.231228113174438477e-01
1.247217357158660889e-01
1.281320452690124512e-01
1.325161606073379517e-01
1.364470869302749634e-01
1.390695571899414062e-01
1.406403034925460815e-01
1.421509385108947754e-01
1.444406360387802124e-01
1.475065052509307861e-01
1.506509631872177124e-01
1.530129164457321167e-01
1.542814373970031738e-01
1.550359725952148438e-01
1.560898572206497192e-01
1.578826606273651123e-01
1.602397710084915161e-01
1.629390567541122437e-01
1.658711582422256470e-01
1.694583296775817871e-01
1.743477433919906616e-01
1.806080043315887451e-01
1.872940659523010254e-01
1.930450797080993652e-01
1.970657855272293091e-01
1.998824179172515869e-01
2.029315680265426636e-01
2.076334357261657715e-01
2.144685983657836914e-01
2.225581258535385132e-01
2.303447425365447998e-01
2.364045083522796631e-01
2.400565445423126221e-01
2.417290210723876953e-01
2.426002174615859985e-01
2.441152036190032959e-01
2.470807284116744995e-01
2.513918876647949219e-01
2.561055123805999756e-01
2.599546909332275391e-01
2.622693777084350586e-01
2.631784379482269287e-01
2.632714509963989258e-01
2.629163563251495361e-01
2.621063590049743652e-01
2.605884969234466553e-01
2.582424581050872803e-01
2.551253736019134521e-01
2.515159547328948975e-01
2.474573999643325806e-01
2.428671419620513916e-01
2.376455515623092651e-01
2.321609705686569214e-01
2.272987514734268188e-01
2.237033694982528687e-01
2.212169468402862549e-01
2.186845391988754272e-01
2.147281020879745483e-01
2.084960192441940308e-01
2.001655548810958862e-01
1.905326545238494873e-01
1.803224831819534302e-01
1.697419732809066772e-01
1.586380749940872192e-01
1.469724327325820923e-01
1.353285461664199829e-01
1.247870847582817078e-01
1.164683774113655090e-01
1.109177693724632263e-01
1.076501160860061646e-01
1.055062562227249146e-01
1.033315435051918030e-01
1.006867364048957825e-01
9.796323627233505249e-02
9.592387080192565918e-02
9.501916915178298950e-02
9.492821246385574341e-02
9.479790925979614258e-02
9.390319138765335083e-02
9.222764521837234497e-02
9.036970138549804688e-02
8.910334855318069458e-02
8.880705386400222778e-02
1.525326818227767944e-01
1.581694185733795166e-01
1.625655889511108398e-01
1.632133871316909790e-01
1.593444496393203735e-01
1.527173370122909546e-01
1.467247009277343750e-01
1.443783789873123169e-01
1.468328982591629028e-01
1.530554294586181641e-01
1.605277508497238159e-01
1.668803691864013672e-01
1.710690706968307495e-01
1.731717139482498169e-01
1.736654937267303467e-01
1.727805286645889282e-01
1.704832762479782104e-01
1.667064279317855835e-01
1.614900976419448853e-01
1.551451236009597778e-01
1.481367945671081543e-01
1.411408483982086182e-01
1.348504424095153809e-01
1.298861801624298096e-01
1.265550702810287476e-01
1.245202198624610901e-01
1.230741441249847412e-01
1.215652078390121460e-01
1.194985136389732361e-01
1.167254447937011719e-01
1.131637766957283020e-01
1.090634390711784363e-01
1.050715819001197815e-01
1.020136773586273193e-01
1.003492400050163269e-01
9.967973828315734863e-02
9.900809824466705322e-02
9.751992672681808472e-02
9.522565454244613647e-02
9.284535050392150879e-02
9.128101170063018799e-02
9.094151109457015991e-02
9.186977893114089966e-02
9.387678653001785278e-02
9.674315899610519409e-02
1.000874936580657959e-01
1.034413203597068787e-01
1.063078790903091431e-01
1.082472875714302063e-01
1.090986430644989014e-01
1.089530065655708313e-01
1.079055517911911011e-01
1.060199663043022156e-01
1.036553904414176941e-01
1.014619693160057068e-01
1.001283675432205200e-01
9.954006224870681763e-02
9.887634217739105225e-02
9.687333554029464722e-02
9.275949746370315552e-02
8.757771551609039307e-02
8.477941155433654785e-02
9.039390087127685547e-02
1.119902431964874268e-01
1.570739150047302246e-01
2.306729704141616821e-01
3.331158161163330078e-01
4.587427973747253418e-01
5.963446497917175293e-01
7.313373684883117676e-01
8.490327596664428711e-01
9.374474883079528809e-01
9.889356493949890137e-01
1.000000000000000000e+00
9.694432616233825684e-01
8.975239396095275879e-01
7.865130305290222168e-01
6.436569094657897949e-01
4.831401705741882324e-01
3.248151242733001709e-01
1.887930184602737427e-01
8.881270885467529297e-02
2.855420485138893127e-02
2.466905862092971802e-03
0.000000000000000000e+00
1.020265277475118637e-02
2.447835914790630341e-02
3.730788826942443848e-02
4.658301919698715210e-02
5.278254672884941101e-02
5.781813338398933411e-02
6.330784410238265991e-02
6.934349238872528076e-02
7.473617792129516602e-02
7.860326021909713745e-02
8.130314201116561890e-02
8.399259299039840698e-02
8.763749897480010986e-02
9.216187894344329834e-02
9.677630662918090820e-02
1.008888408541679382e-01
1.043634414672851562e-01
1.073202267289161682e-01
1.098785772919654846e-01
1.118908002972602844e-01
1.134038269519805908e-01
1.148563325405120850e-01
1.165954545140266418e-01
1.183624118566513062e-01
1.194899454712867737e-01
1.196122989058494568e-01
1.193137690424919128e-01
1.197985261678695679e-01
1.221153289079666138e-01
1.260982453823089600e-01
1.303675025701522827e-01
1.331924349069595337e-01
1.339511424303054810e-01
1.334750354290008545e-01
1.333216726779937744e-01
1.346355378627777100e-01
1.376454830169677734e-01
1.418847590684890747e-01
1.467759162187576294e-01
1.517235040664672852e-01
1.560946255922317505e-01
1.592004895210266113e-01
1.606507599353790283e-01
1.609811335802078247e-01
1.612580567598342896e-01
1.626244336366653442e-01
1.654591411352157593e-01
1.694437414407730103e-01
1.737331002950668335e-01
1.774944067001342773e-01
1.804412305355072021e-01
1.828155815601348877e-01
1.851339638233184814e-01
1.882133781909942627e-01
1.927341371774673462e-01
1.989915817975997925e-01
2.065895199775695801e-01
2.145330905914306641e-01
2.217356562614440918e-01
2.274256646633148193e-01
2.314359545707702637e-01
2.340362071990966797e-01
2.360079288482666016e-01
2.381184697151184082e-01
2.408114671707153320e-01
2.442610263824462891e-01
2.483324855566024780e-01
2.526250183582305908e-01
2.565453648567199707e-01
2.594431936740875244e-01
2.609148919582366943e-01
2.609268128871917725e-01
2.598126828670501709e-01
2.581054270267486572e-01
2.564604282379150391e-01
2.552801966667175293e-01
2.544002532958984375e-01
2.532111704349517822e-01
2.509726881980895996e-01
2.472024410963058472e-01
2.420630306005477905e-01
2.362761944532394409e-01
2.307446748018264771e-01
2.259747385978698730e-01
2.218205779790878296e-01
2.175211608409881592e-01
2.120356410741806030e-01
2.045199275016784668e-01
1.947828531265258789e-01
1.836456954479217529e-01
1.726631969213485718e-01
1.634094864130020142e-01
1.565169095993041992e-01
1.514226496219635010e-01
1.468655914068222046e-01
1.417976021766662598e-01
1.358946412801742554e-01
1.293730288743972778e-01
1.228062510490417480e-01
1.169561818242073059e-01
1.124918535351753235e-01
1.097096651792526245e-01
1.082832291722297668e-01
1.073941588401794434e-01
1.061229482293128967e-01
1.039687246084213257e-01
1.012165173888206482e-01
9.866292029619216919e-02
9.714150428771972656e-02
9.699401259422302246e-02
9.804463386535644531e-02
9.956353157758712769e-02
1.004974767565727234e-01
1.002172976732254028e-01
9.872306883335113525e-02
1.297899782657623291e-01
1.389671713113784790e-01
1.482524126768112183e-01
1.553733795881271362e-01
1.594942659139633179e-01
1.606562435626983643e-01
1.591619551181793213e-01
1.553936898708343506e-01
1.499849557876586914e-01
1.439560353755950928e-01
1.385330259799957275e-01
1.347406208515167236e-01
1.328983157873153687e-01
1.325628459453582764e-01
1.322687566280364990e-01
1.302478760480880737e-01
1.253883242607116699e-01
1.183323115110397339e-01
1.110246405005455017e-01
1.056615933775901794e-01
1.028867214918136597e-01
1.016118898987770081e-01
9.988730400800704956e-02
9.640786796808242798e-02
9.135797619819641113e-02
8.612243086099624634e-02
8.230110257863998413e-02
8.042430132627487183e-02
7.996707409620285034e-02
7.971436530351638794e-02
7.894188165664672852e-02
7.810387760400772095e-02
7.835849374532699585e-02
8.053101599216461182e-02
8.422446250915527344e-02
8.786425739526748657e-02
9.010287374258041382e-02
9.055531024932861328e-02
8.993753790855407715e-02
8.911878615617752075e-02
8.853682875633239746e-02
8.814503252506256104e-02
8.775572478771209717e-02
8.770476281642913818e-02
8.863300830125808716e-02
9.099232405424118042e-02
9.461756795644760132e-02
9.842950850725173950e-02
1.007414087653160095e-01
9.962531179189682007e-02
9.392689168453216553e-02
8.409284055233001709e-02
7.268862426280975342e-02
6.472275406122207642e-02
6.692802906036376953e-02
8.701016008853912354e-02
1.321298480033874512e-01
2.067695111036300659e-01
3.111308813095092773e-01
4.398439526557922363e-01
5.816767811775207520e-01
7.213280200958251953e-01
8.430310487747192383e-01
9.341508150100708008e-01
9.872905611991882324e-01
1.000000000000000000e+00
9.717226624488830566e-01
9.017428159713745117e-01
7.903382778167724609e-01
6.430993676185607910e-01
4.749535322189331055e-01
3.089025318622589111e-01
1.688871830701828003e-01
7.089497148990631104e-02
1.768516190350055695e-02
0.000000000000000000e+00
3.034284571185708046e-03
1.327776070684194565e-02
2.221278287470340729e-02
2.683313377201557159e-02
2.825175225734710693e-02
2.967707626521587372e-02
3.435155004262924194e-02
4.345200955867767334e-02
5.564250424504280090e-02
6.809202581644058228e-02
7.804553210735321045e-02
8.422982692718505859e-02
8.696868270635604858e-02
8.765456825494766235e-02
8.792470395565032959e-02
8.898323029279708862e-02
9.114368259906768799e-02
9.397258609533309937e-02
9.657426178455352783e-02
9.810601174831390381e-02
9.861247986555099487e-02
9.881843626499176025e-02
9.949799627065658569e-02
1.009695902466773987e-01
1.028737872838973999e-01
1.046001985669136047e-01
1.059366241097450256e-01
1.071407571434974670e-01
1.088373661041259766e-01
1.114640459418296814e-01
1.147256568074226379e-01
1.179930046200752258e-01
1.206424832344055176e-01
1.226591467857360840e-01
1.244867071509361267e-01
1.268353015184402466e-01
1.301136612892150879e-01
1.342748701572418213e-01
1.388732939958572388e-01
1.430699378252029419e-01
1.458861976861953735e-01
1.467775702476501465e-01
1.459823846817016602e-01
1.445885747671127319e-01
1.438906192779541016e-01
1.447723060846328735e-01
1.473862379789352417e-01
1.510599553585052490e-01
1.549887657165527344e-01
1.588147878646850586e-01
1.629375815391540527e-01
1.677479892969131470e-01
1.733254194259643555e-01
1.791627407073974609e-01
1.844960898160934448e-01
1.887124776840209961e-01
1.919807940721511841e-01
1.949575096368789673e-01
1.983930766582489014e-01
2.026310116052627563e-01
2.073418796062469482e-01
2.118366509675979614e-01
2.157207280397415161e-01
2.192426025867462158e-01
2.233551442623138428e-01
2.288424372673034668e-01
2.355700731277465820e-01
2.424901574850082397e-01
2.481074333190917969e-01
2.515691518783569336e-01
2.529592216014862061e-01
2.531912326812744141e-01
2.531770765781402588e-01
2.534839808940887451e-01
2.542625069618225098e-01
2.551549375057220459e-01
2.554562091827392578e-01
2.542322278022766113e-01
2.507940828800201416e-01
2.452889829874038696e-01
2.386646121740341187e-01
2.323963046073913574e-01
2.275815904140472412e-01
2.242156714200973511e-01
2.213617712259292603e-01
2.178758084774017334e-01
2.130471020936965942e-01
2.068905979394912720e-01
1.996824592351913452e-01
1.915750056505203247e-01
1.827573329210281372e-01
1.738236546516418457e-01
1.655873507261276245e-01
1.588585674762725830e-01
1.536497473716735840e-01
1.490696370601654053e-01
1.440328657627105713e-01
1.378848850727081299e-01
1.305929273366928101e-01
1.225278154015541077e-01
1.140611320734024048e-01
1.055458784103393555e-01
9.771354496479034424e-02
9.128928929567337036e-02
8.661902695894241333e-02
8.333232998847961426e-02
8.048828691244125366e-02
7.740581780672073364e-02
7.455479353666305542e-02
7.300627976655960083e-02
7.334605604410171509e-02
7.485577464103698730e-02
7.616969197988510132e-02
7.628358900547027588e-02
7.535716146230697632e-02
7.438513636589050293e-02
7.416347414255142212e-02
7.457414269447326660e-02
7.481084764003753662e-02
7.430390268564224243e-02
7.331224530935287476e-02
7.255259156227111816e-02
7.255201786756515503e-02
7.344415038824081421e-02
1.370556205511093140e-01
1.391591280698776245e-01
1.421922892332077026e-01
1.468551158905029297e-01
1.518458276987075806e-01
1.546806842088699341e-01
1.536504477262496948e-01
1.495734900236129761e-01
1.457106173038482666e-01
1.453346759080886841e-01
1.496587395668029785e-01
1.572128534317016602e-01
1.649488061666488647e-01
1.702262163162231445e-01
1.720536202192306519e-01
1.709527373313903809e-01
1.677336543798446655e-01
1.630955636501312256e-01
1.576406806707382202e-01
1.521319597959518433e-01
1.475214809179306030e-01
1.444423049688339233e-01
1.427664309740066528e-01
1.416992098093032837e-01
1.400967687368392944e-01
