2.178855687379837036e-01
2.050828784704208374e-01
1.924882680177688599e-01
1.910325884819030762e-01
2.018667608499526978e-01
2.152665853500366211e-01
2.189025878906250000e-01
2.087474912405014038e-01
1.930791437625885010e-01
1.860360503196716309e-01
1.964999586343765259e-01
2.204315811395645142e-01
2.436778545379638672e-01
2.529398500919342041e-01
2.460413426160812378e-01
2.329916507005691528e-01
2.273871451616287231e-01
2.353942543268203735e-01
2.508166134357452393e-01
2.602744996547698975e-01
2.544348239898681641e-01
2.358207404613494873e-01
2.165717631578445435e-01
2.088678628206253052e-01
2.150805145502090454e-01
2.257960140705108643e-01
2.275875955820083618e-01
2.144463062286376953e-01
1.927862465381622314e-01
1.762392073869705200e-01
1.749194711446762085e-01
1.871329843997955322e-01
2.005604058504104614e-01
2.020982056856155396e-01
1.883353888988494873e-01
1.679297089576721191e-01
1.543905436992645264e-01
1.553882658481597900e-01
1.665600389242172241e-01
1.753539144992828369e-01
1.716864258050918579e-01
1.564713120460510254e-01
1.406116485595703125e-01
1.359804719686508179e-01
1.455705910921096802e-01
1.607289910316467285e-01
1.680851280689239502e-01
1.605684906244277954e-01
1.432330012321472168e-01
1.289270520210266113e-01
1.282010674476623535e-01
1.407547146081924438e-01
1.556970775127410889e-01
1.603446751832962036e-01
1.505109220743179321e-01
1.330870538949966431e-01
1.193557232618331909e-01
1.148623675107955933e-01
1.137933731079101562e-01
1.034388393163681030e-01
7.565315812826156616e-02
3.618355840444564819e-02
3.936513792723417282e-03
1.145687885582447052e-03
4.138240963220596313e-02
1.232443302869796753e-01
2.341366559267044067e-01
3.601865470409393311e-01
4.930089712142944336e-01
6.287776231765747070e-01
7.620692253112792969e-01
8.801981806755065918e-01
9.647010564804077148e-01
1.000000000000000000e+00
9.829687476158142090e-01
9.241519570350646973e-01
8.393522500991821289e-01
7.393242716789245605e-01
6.254644989967346191e-01
4.952298998832702637e-01
3.521838188171386719e-01
2.120221853256225586e-01
9.759713709354400635e-02
2.631594613194465637e-02
0.000000000000000000e+00
3.956661093980073929e-03
1.617846079170703888e-02
2.055144309997558594e-02
1.453874073922634125e-02
7.199531886726617813e-03
9.811571799218654633e-03
2.587473578751087189e-02
4.823672771453857422e-02
6.499540060758590698e-02
6.949587166309356689e-02
6.574863940477371216e-02
6.460108608007431030e-02
7.466661930084228516e-02
9.436577558517456055e-02
1.127936244010925293e-01
1.185500025749206543e-01
1.095643043518066406e-01
9.506179392337799072e-02
8.829382061958312988e-02
9.614449739456176758e-02
1.135668456554412842e-01
1.277666389942169189e-01
1.289082616567611694e-01
1.181130260229110718e-01
1.062604784965515137e-01
1.051374822854995728e-01
1.177099123597145081e-01
1.355873495340347290e-01
1.456589698791503906e-01
1.409638077020645142e-01
1.263688504695892334e-01
1.145652383565902710e-01
1.161257252097129822e-01
1.307694315910339355e-01
1.476784497499465942e-01
1.544506549835205078e-01
1.475006788969039917e-01
1.347267776727676392e-01
1.288319081068038940e-01
1.369240134954452515e-01
1.544164568185806274e-01
1.685571521520614624e-01
1.690670996904373169e-01
1.567723304033279419e-01
1.427819728851318359e-01
1.395892202854156494e-01
1.510037630796432495e-01
1.689504534006118774e-01
1.798660606145858765e-01
1.761488020420074463e-01
1.622867733240127563e-01
1.510012298822402954e-01
1.528839021921157837e-01
1.675166040658950806e-01
1.836777925491333008e-01
1.884437352418899536e-01
1.778819710016250610e-01
1.601675748825073242e-01
1.487660557031631470e-01
1.518171131610870361e-01
1.655543595552444458e-01
1.773615330457687378e-01
1.760329902172088623e-01
1.610335707664489746e-01
1.427352428436279297e-01
1.341467350721359253e-01
1.405171751976013184e-01
1.549472212791442871e-01
1.640273928642272949e-01
1.590245962142944336e-01
1.430300027132034302e-01
1.280993223190307617e-01
1.254759430885314941e-01
1.363160312175750732e-01
1.507570892572402954e-01
1.560910493135452271e-01
1.475868523120880127e-01
1.322608441114425659e-01
1.229922324419021606e-01
1.282420456409454346e-01
1.450378000736236572e-01
1.611585170030593872e-01
1.648593693971633911e-01
1.543693840503692627e-01
1.389952898025512695e-01
1.316367834806442261e-01
1.383937448263168335e-01
1.535144001245498657e-01
1.639781296253204346e-01
1.602823734283447266e-01
1.443810611963272095e-01
1.282318830490112305e-01
1.242620199918746948e-01
1.353423595428466797e-01
1.520627737045288086e-01
1.602312326431274414e-01
1.526238471269607544e-01
1.348556131124496460e-01
1.206485405564308167e-01
1.209009736776351929e-01
1.347779035568237305e-01
1.503925770521163940e-01
1.547767370939254761e-01
1.447369307279586792e-01
1.290489584207534790e-01
1.209879964590072632e-01
1.274517327547073364e-01
1.432456970214843750e-01
1.555445343255996704e-01
1.547052860260009766e-01
1.423651427030563354e-01
1.296858787536621094e-01
1.284044086933135986e-01
1.411212533712387085e-01
1.590230762958526611e-01
7.219173014163970947e-02
7.628619670867919922e-02
9.122196584939956665e-02
1.061079129576683044e-01
1.100325733423233032e-01
1.010246723890304565e-01
8.758023381233215332e-02
8.176500350236892700e-02
8.946101367473602295e-02
1.054190322756767273e-01
1.174795925617218018e-01
1.165663301944732666e-01
1.041386276483535767e-01
9.088402241468429565e-02
8.812559396028518677e-02
9.866104274988174438e-02
1.143746525049209595e-01
1.229299679398536682e-01
1.179314106702804565e-01
1.040570065379142761e-01
9.294226765632629395e-02
9.388869255781173706e-02
1.062768101692199707e-01
1.199543401598930359e-01
1.235181242227554321e-01
1.136799603700637817e-01
9.771706163883209229e-02
8.753605931997299194e-02
9.017343819141387939e-02
1.018324717879295349e-01
1.112957000732421875e-01
1.091555356979370117e-01
9.643787890672683716e-02
8.382095396518707275e-02
8.241246640682220459e-02
9.392308443784713745e-02
1.098074242472648621e-01
1.189669519662857056e-01
1.175856664776802063e-01
1.120483204722404480e-01
1.124495416879653931e-01
1.225802600383758545e-01
1.360150724649429321e-01
1.420097351074218750e-01
1.350700110197067261e-01
1.204099804162979126e-01
1.091721951961517334e-01
1.092642098665237427e-01
1.179881170392036438e-01
1.234514862298965454e-01
1.139304786920547485e-01
8.783013373613357544e-02
5.590524524450302124e-02
3.492421284317970276e-02
3.796434402465820312e-02
6.856618821620941162e-02
1.228836551308631897e-01
1.970631629228591919e-01
2.923547029495239258e-01
4.125240743160247803e-01
5.562357902526855469e-01
7.102982997894287109e-01
8.506254553794860840e-01
9.518895149230957031e-01
1.000000000000000000e+00
9.974156618118286133e-01
9.571792483329772949e-01
8.909246921539306641e-01
8.002817034721374512e-01
6.794760227203369141e-01
5.272816419601440430e-01
3.578734099864959717e-01
1.995310336351394653e-01
8.133260160684585571e-02
1.740700565278530121e-02
0.000000000000000000e+00
6.111901719123125076e-03
1.304122991859912872e-02
1.097595877945423126e-02
4.640288650989532471e-03
4.827220924198627472e-03
1.756290905177593231e-02
3.852697461843490601e-02
5.654796585440635681e-02
6.313568353652954102e-02
5.956012755632400513e-02
5.536875128746032715e-02
6.024870276451110840e-02
7.558478415012359619e-02
9.284887462854385376e-02
1.006355211138725281e-01
9.453034400939941406e-02
8.119030296802520752e-02
7.287403941154479980e-02
7.778318226337432861e-02
9.328479319810867310e-02
1.080852970480918884e-01
1.115054041147232056e-01
1.022330820560455322e-01
8.912353217601776123e-02
8.387934416532516479e-02
9.153790771961212158e-02
1.063974052667617798e-01
1.167260557413101196e-01
1.145357564091682434e-01
1.022057235240936279e-01
9.036617726087570190e-02
8.942539989948272705e-02
1.009701043367385864e-01
1.164009496569633484e-01
1.239219531416893005e-01
1.183630526065826416e-01
1.054208651185035706e-01
9.675946831703186035e-02
1.006908565759658813e-01
1.152678951621055603e-01
1.296859681606292725e-01
1.331577450037002563e-01
1.239598542451858521e-01
1.106812506914138794e-01
1.052536517381668091e-01
1.134464144706726074e-01
1.300003826618194580e-01
1.426688134670257568e-01
1.422868520021438599e-01
1.301085948944091797e-01
1.165965944528579712e-01
1.131083145737648010e-01
1.226730346679687500e-01
1.376496106386184692e-01
1.460684388875961304e-01
1.415843665599822998e-01
1.285756826400756836e-01
1.182612553238868713e-01
1.195071116089820862e-01
1.313847154378890991e-01
1.436858624219894409e-01
1.452036350965499878e-01
1.331585049629211426e-01
1.155427098274230957e-01
1.046003773808479309e-01
1.072331741452217102e-01
1.194129586219787598e-01
1.295049935579299927e-01
1.278949081897735596e-01
1.149169579148292542e-01
1.002196297049522400e-01
9.499882161617279053e-02
1.029814258217811584e-01
1.173430979251861572e-01
1.261438876390457153e-01
1.221623718738555908e-01
1.087835058569908142e-01
9.696428477764129639e-02
9.663016349077224731e-02
1.085041016340255737e-01
1.233750656247138977e-01
1.295201331377029419e-01
1.225302740931510925e-01
1.087940484285354614e-01
1.001733168959617615e-01
1.044158935546875000e-01
1.187208667397499084e-01
1.318051964044570923e-01
1.331571340560913086e-01
1.217183545231819153e-01
1.065349653363227844e-01
9.935435652732849121e-02
1.052353084087371826e-01
1.185331717133522034e-01
1.276579946279525757e-01
1.248359754681587219e-01
1.125258132815361023e-01
1.010234504938125610e-01
1.000745743513107300e-01
1.107697486877441406e-01
1.245779693126678467e-01
1.303144842386245728e-01
1.234200000762939453e-01
1.097424626350402832e-01
1.008164957165718079e-01
1.047066077589988708e-01
1.192486435174942017e-01
1.336346268653869629e-01
1.370660513639450073e-01
1.277651339769363403e-01
1.142143160104751587e-01
1.083830446004867554e-01
1.160182207822799683e-01
1.318129897117614746e-01
1.435313373804092407e-01
1.422131806612014771e-01
1.296148896217346191e-01
1.165860444307327271e-01
1.144484803080558777e-01
1.258375793695449829e-01
1.424986869096755981e-01
1.519128531217575073e-01
1.476074606180191040e-01
1.342385262250900269e-01
1.642880737781524658e-01
1.492774486541748047e-01
1.429803073406219482e-01
1.514005810022354126e-01
1.687679290771484375e-01
1.816277951002120972e-01
1.798190921545028687e-01
1.646879762411117554e-01
1.487675160169601440e-01
1.476384401321411133e-01
1.694603711366653442e-01
2.087408006191253662e-01
2.489959299564361572e-01
2.738948166370391846e-01
2.778423130512237549e-01
2.685583829879760742e-01
2.604053616523742676e-01
2.633808553218841553e-01
2.752105891704559326e-01
2.837757766246795654e-01
2.783264517784118652e-01
2.591647505760192871e-01
2.371277958154678345e-01
2.250630110502243042e-01
2.275693565607070923e-01
2.373595088720321655e-01
2.416101843118667603e-01
2.328540384769439697e-01
2.151275873184204102e-01
2.003131061792373657e-01
1.985699683427810669e-01
2.097040414810180664e-01
2.230418175458908081e-01
2.259311974048614502e-01
2.139879018068313599e-01
1.946504265069961548e-01
1.811057180166244507e-01
1.818291693925857544e-01
1.937716156244277954e-01
2.048502564430236816e-01
2.040651291608810425e-01
1.907180994749069214e-01
1.748503744602203369e-01
1.690714359283447266e-01
1.781748831272125244e-01
1.948464214801788330e-01
2.052698582410812378e-01
2.005933523178100586e-01
1.841931194067001343e-01
1.687483787536621094e-01
1.662369817495346069e-01
1.781091541051864624e-01
1.935503482818603516e-01
1.977341175079345703e-01
1.832642555236816406e-01
1.553667932748794556e-01
1.271225363016128540e-01
1.097342893481254578e-01
1.052037179470062256e-01
1.079014986753463745e-01
1.139574944972991943e-01
1.301647722721099854e-01
1.734302937984466553e-01
2.601102888584136963e-01
3.927852809429168701e-01
5.536752343177795410e-01
7.115394473075866699e-01
8.379506468772888184e-01
9.214292168617248535e-01
9.685658812522888184e-01
9.928151369094848633e-01
1.000000000000000000e+00
9.823578000068664551e-01
9.250105023384094238e-01
8.204936981201171875e-01
6.786620020866394043e-01
5.236837863922119141e-01
3.812088668346405029e-01
2.653875648975372314e-01
1.757885068655014038e-01
1.048998832702636719e-01
4.893678426742553711e-02
1.184791326522827148e-02
0.000000000000000000e+00
1.300629787147045135e-02
3.905445337295532227e-02
6.054051592946052551e-02
6.595361232757568359e-02
5.744166299700737000e-02
4.841236025094985962e-02
5.288429185748100281e-02
7.447601854801177979e-02
1.036402136087417603e-01
1.251780241727828979e-01
1.302512139081954956e-01
1.227705851197242737e-01
1.152065396308898926e-01
1.184771135449409485e-01
1.331920027732849121e-01
1.496127843856811523e-01
1.562949866056442261e-01
1.500039249658584595e-01
1.383765935897827148e-01
1.335908770561218262e-01
1.425660848617553711e-01
1.610402613878250122e-01
1.765995770692825317e-01
1.787869334220886230e-01
1.677241325378417969e-01
1.538983434438705444e-01
1.498247832059860229e-01
1.599991619586944580e-01
1.772311776876449585e-01
1.883145421743392944e-01
1.850918233394622803e-01
1.712564229965209961e-01
1.590714752674102783e-01
1.595746576786041260e-01
1.735645979642868042e-01
1.907440423965454102e-01
1.981380581855773926e-01
1.908946931362152100e-01
1.761712133884429932e-01
1.671943217515945435e-01
1.726348847150802612e-01
1.893775463104248047e-01
2.049727588891983032e-01
2.080052196979522705e-01
1.976468265056610107e-01
1.843242198228836060e-01
1.811436414718627930e-01
1.931138932704925537e-01
2.127059996128082275e-01
2.258937954902648926e-01
2.235962301492691040e-01
2.090992331504821777e-01
1.950036436319351196e-01
1.931639462709426880e-01
2.050868421792984009e-01
2.206680923700332642e-01
2.263880521059036255e-01
2.164698243141174316e-01
1.974142789840698242e-01
1.825559735298156738e-01
1.815775632858276367e-01
1.928016394376754761e-01
2.047002762556076050e-01
2.054058462381362915e-01
1.926649659872055054e-01
1.753367185592651367e-01
1.661148071289062500e-01
1.710538566112518311e-01
1.845633536577224731e-01
1.938880681991577148e-01
1.899061799049377441e-01
1.748360544443130493e-01
1.602045744657516479e-01
1.576180160045623779e-01
1.691994965076446533e-01
1.856194436550140381e-01
1.934927254915237427e-01
1.864460259675979614e-01
1.702924966812133789e-01
1.580297052860260010e-01
1.595075875520706177e-01
1.735152155160903931e-01
1.886783689260482788e-01
1.929002106189727783e-01
1.833040267229080200e-01
1.684268563985824585e-01
1.611095219850540161e-01
1.680188775062561035e-01
1.840561181306838989e-01
1.963682919740676880e-01
1.949160099029541016e-01
1.806807219982147217e-01
1.647304296493530273e-01
1.594518125057220459e-01
1.683634966611862183e-01
1.831528693437576294e-01
1.903664022684097290e-01
1.827735304832458496e-01
1.655610501766204834e-01
1.519838273525238037e-01
1.529571712017059326e-01
1.680010110139846802e-01
1.854005455970764160e-01
1.916518509387969971e-01
1.825571656227111816e-01
1.662877053022384644e-01
1.565310806035995483e-01
1.614836156368255615e-01
1.772121489048004150e-01
1.908975690603256226e-01
1.915704458951950073e-01
1.791814267635345459e-01
1.643912047147750854e-01
1.598223894834518433e-01
1.697338670492172241e-01
1.865382045507431030e-01
1.657247990369796753e-01
1.527786254882812500e-01
1.367620974779129028e-01
1.293250322341918945e-01
1.350880563259124756e-01
1.479304432868957520e-01
1.558735519647598267e-01
1.509365290403366089e-01
1.356967091560363770e-01
1.209863200783729553e-01
1.172275170683860779e-01
1.258605718612670898e-01
1.381492316722869873e-01
1.424297690391540527e-01
1.339618116617202759e-01
1.188731417059898376e-01
1.089595705270767212e-01
1.119791343808174133e-01
1.251812875270843506e-01
1.373824477195739746e-01
1.382916569709777832e-01
1.270828992128372192e-01
1.129284650087356567e-01
1.074300184845924377e-01
1.152686104178428650e-01
1.303954720497131348e-01
1.408689916133880615e-01
1.386389881372451782e-01
1.260832399129867554e-01
1.137295812368392944e-01
1.117992550134658813e-01
1.219014450907707214e-01
1.356383711099624634e-01
1.415100544691085815e-01
1.343631744384765625e-01
1.195623353123664856e-01
1.084742471575737000e-01
1.095457151532173157e-01
1.212155073881149292e-01
1.333698779344558716e-01
1.355587244033813477e-01
1.260012239217758179e-01
1.131506934762001038e-01
1.085592284798622131e-01
1.168394684791564941e-01
1.320191770792007446e-01
1.429549157619476318e-01
1.429341882467269897e-01
1.352790445089340210e-01
1.298771351575851440e-01
1.339172422885894775e-01
1.451017111539840698e-01
1.538755595684051514e-01
1.517720073461532593e-01
1.388199180364608765e-01
1.228741630911827087e-01
1.126477494835853577e-01
1.100585758686065674e-01
1.084367856383323669e-01
9.859191626310348511e-02
7.845430076122283936e-02
5.828529968857765198e-02
5.676181986927986145e-02
9.114596247673034668e-02
1.673116385936737061e-01
2.768056988716125488e-01
4.029901921749114990e-01
5.309963822364807129e-01
6.534638404846191406e-01
7.684730291366577148e-01
8.725998401641845703e-01
9.551578760147094727e-01
1.000000000000000000e+00
9.937186241149902344e-01
9.339662790298461914e-01
8.306225538253784180e-01
6.999987959861755371e-01
5.575989484786987305e-01
4.144447147846221924e-01
2.785438299179077148e-01
1.591726541519165039e-01
6.800240278244018555e-02
1.458009704947471619e-02
0.000000000000000000e+00
1.358457934111356735e-02
3.651361167430877686e-02
5.117084458470344543e-02
5.088983476161956787e-02
4.230490326881408691e-02
3.885420039296150208e-02
4.978179931640625000e-02
7.261311262845993042e-02
9.533990174531936646e-02
1.061095222830772400e-01
1.025602146983146667e-01
9.317978471517562866e-02
8.983227610588073730e-02
9.825183451175689697e-02
1.135670170187950134e-01
1.246857568621635437e-01
1.238177120685577393e-01
1.129374951124191284e-01
1.020044162869453430e-01
1.009989827871322632e-01
1.117853373289108276e-01
1.264163553714752197e-01
1.335897445678710938e-01
1.280391812324523926e-01
1.148599758744239807e-01
1.052559912204742432e-01
1.078694462776184082e-01
1.215524822473526001e-01
1.362600475549697876e-01
1.411776840686798096e-01
1.336719095706939697e-01
1.212230622768402100e-01
1.151473522186279297e-01
1.214876323938369751e-01
1.359988898038864136e-01
1.476178914308547974e-01
1.478328704833984375e-01
1.378864347934722900e-01
1.275849491357803345e-01
1.272768527269363403e-01
1.392908692359924316e-01
1.558615565299987793e-01
1.651395410299301147e-01
1.610433161258697510e-01
1.481177210807800293e-01
1.378206908702850342e-01
1.395443379878997803e-01
1.529662162065505981e-01
1.682509034872055054e-01
1.739674210548400879e-01
1.666110455989837646e-01
1.532852649688720703e-01
1.458237767219543457e-01
1.512194573879241943e-01
1.656677871942520142e-01
1.776258498430252075e-01
1.773888170719146729e-01
1.651812940835952759e-01
1.509220302104949951e-01
1.460545808076858521e-01
1.543345302343368530e-01
1.686273962259292603e-01
1.766103357076644897e-01
1.708132773637771606e-01
1.547680348157882690e-01
1.398588120937347412e-01
1.363400071859359741e-01
1.451458334922790527e-01
1.571198701858520508e-01
1.606191396713256836e-01
1.513053327798843384e-01
1.356626600027084351e-01
1.255696415901184082e-01
1.288568973541259766e-01
1.427053064107894897e-01
1.558205485343933105e-01
1.576407253742218018e-01
1.468693315982818604e-01
1.321817487478256226e-01
1.252562105655670166e-01
1.313336938619613647e-01
1.451596021652221680e-01
1.553059071302413940e-01
1.537411212921142578e-01
1.425525099039077759e-01
1.319598108530044556e-01
1.320995837450027466e-01
1.444323509931564331e-01
1.601888984441757202e-01
1.672370284795761108e-01
1.600578725337982178e-01
1.442338228225708008e-01
1.317193657159805298e-01
1.313609331846237183e-01
1.417678296566009521e-01
1.526099890470504761e-01
1.533825397491455078e-01
1.422575861215591431e-01
1.274548172950744629e-01
1.205359399318695068e-01
1.270051747560501099e-01
1.418043971061706543e-01
1.532404124736785889e-01
1.525974124670028687e-01
1.413106322288513184e-01
1.295169144868850708e-01
1.279148161411285400e-01
1.388743966817855835e-01
1.544141769409179688e-01
1.627071499824523926e-01
1.579876244068145752e-01
1.452817469835281372e-01
1.360523253679275513e-01
1.389998048543930054e-01
1.528033465147018433e-01
1.671644747257232666e-01
2.075597047805786133e-01
1.963931173086166382e-01
1.853025555610656738e-01
1.840441077947616577e-01
1.934906095266342163e-01
2.050811797380447388e-01
2.082809656858444214e-01
1.999980509281158447e-01
1.876724213361740112e-01
1.833815723657608032e-01
1.940755993127822876e-01
2.154600471258163452e-01
2.348835766315460205e-01
2.410982996225357056e-01
2.330055385828018188e-01
2.199656218290328979e-01
2.138651609420776367e-01
2.196584790945053101e-01
2.314815223217010498e-01
2.375892698764801025e-01
2.303599566221237183e-01
2.125630080699920654e-01
1.949985474348068237e-01
1.880335807800292969e-01
1.932713389396667480e-01
2.023428827524185181e-01
2.038282006978988647e-01
1.928749680519104004e-01
1.751044243574142456e-01
1.619657129049301147e-01
1.616221517324447632e-01
1.721073985099792480e-01
1.827100813388824463e-01
1.826117485761642456e-01
1.697838157415390015e-01
1.525959819555282593e-01
1.430006176233291626e-01
1.469278633594512939e-01
1.593321114778518677e-01
1.682080477476119995e-01
1.645982563495635986e-01
1.500129252672195435e-01
1.350339502096176147e-01
1.306854337453842163e-01
1.394170671701431274e-01
1.529336273670196533e-01
1.589632183313369751e-01
1.515624225139617920e-01
1.360060572624206543e-01
1.242617592215538025e-01
1.254182457923889160e-01
1.381716579198837280e-01
1.518115997314453125e-01
1.550567448139190674e-01
1.449132561683654785e-01
1.282903850078582764e-01
1.153368055820465088e-01
1.105826720595359802e-01
1.090398430824279785e-01
1.010322123765945435e-01
8.223311603069305420e-02
6.071574613451957703e-02
5.484747141599655151e-02
8.401692658662796021e-02
1.573149263858795166e-01
2.682331204414367676e-01
3.991827368736267090e-01
5.321714282035827637e-01
6.568700671195983887e-01
7.705944180488586426e-01
8.719201087951660156e-01
9.532434940338134766e-01
1.000000000000000000e+00
9.977003931999206543e-01
9.414485096931457520e-01
8.392044305801391602e-01
7.072631120681762695e-01
5.626815557479858398e-01
4.182859361171722412e-01
2.827213108539581299e-01
1.642589420080184937e-01
7.299100607633590698e-02
1.771591044962406158e-02
0.000000000000000000e+00
1.061057765036821365e-02
3.200928121805191040e-02
4.676806181669235229e-02
4.705092310905456543e-02
3.817544132471084595e-02
3.321841359138488770e-02
4.244792461395263672e-02
6.502252817153930664e-02
8.945666253566741943e-02
1.024999246001243591e-01
9.955114126205444336e-02
8.798044919967651367e-02
8.075887709856033325e-02
8.652365952730178833e-02
1.028817221522331238e-01
1.186256632208824158e-01
1.232153028249740601e-01
1.154231503605842590e-01
1.038826629519462585e-01
9.999091178178787231e-02
1.086251139640808105e-01
1.240474954247474670e-01
1.346228569746017456e-01
1.325750201940536499e-01
1.204257011413574219e-01
1.088718548417091370e-01
1.083590984344482422e-01
1.206610649824142456e-01
1.376280933618545532e-01
1.477841883897781372e-01
1.458017379045486450e-01
1.366245895624160767e-01
1.309866607189178467e-01
1.366288363933563232e-01
1.517832279205322266e-01
1.663401722908020020e-01
1.700528711080551147e-01
1.612769365310668945e-01
1.483684182167053223e-01
1.431734561920166016e-01
1.516304165124893188e-01
1.688693761825561523e-01
1.829134225845336914e-01
1.844043582677841187e-01
1.743327826261520386e-01
1.629575490951538086e-01
1.614292860031127930e-01
1.725292503833770752e-01
1.883762329816818237e-01
1.968817412853240967e-01
1.919532418251037598e-01
1.785828173160552979e-01
1.685815155506134033e-01
1.711893081665039062e-01
1.853257715702056885e-01
2.003680169582366943e-01
2.048389911651611328e-01
1.957835406064987183e-01
1.809253543615341187e-01
1.723700612783432007e-01
1.769141852855682373e-01
1.902729272842407227e-01
2.005253881216049194e-01
1.979052871465682983e-01
1.828663796186447144e-01
1.655384898185729980e-01
1.576562076807022095e-01
1.631334275007247925e-01
1.750147491693496704e-01
1.813029050827026367e-01
1.751379668712615967e-01
1.603949666023254395e-01
1.481423079967498779e-01
1.476181745529174805e-01
1.585612297058105469e-01
1.713232994079589844e-01
1.747459918260574341e-01
1.655926704406738281e-01
1.510282754898071289e-01
1.428254991769790649e-01
1.477594524621963501e-01
1.619381010532379150e-01
1.738128960132598877e-01
1.735147088766098022e-01
1.611411124467849731e-01
1.464264839887619019e-01
1.409588307142257690e-01
1.488286703824996948e-01
1.632174998521804810e-01
1.718380302190780640e-01
1.671993881464004517e-01
1.528313457965850830e-01
1.402049362659454346e-01
1.396044790744781494e-01
1.517308652400970459e-01
1.668603718280792236e-01
1.726767569780349731e-01
1.643530279397964478e-01
1.483470201492309570e-01
1.370039582252502441e-01
1.386285722255706787e-01
1.508590728044509888e-01
1.626654267311096191e-01
1.635970175266265869e-01
1.525360494852066040e-01
1.385247856378555298e-01
1.332750320434570312e-01
1.416074037551879883e-01
1.573496758937835693e-01
1.682720929384231567e-01
1.661990582942962646e-01
1.537075489759445190e-01
1.417885869741439819e-01
1.411272734403610229e-01
1.533991992473602295e-01
1.698602885007858276e-01
2.075275927782058716e-01
1.974080055952072144e-01
1.843343079090118408e-01
1.807008981704711914e-01
1.910974830389022827e-01
2.080791443586349487e-01
2.178756147623062134e-01
2.117811590433120728e-01
1.937682479619979858e-01
1.777645498514175415e-01
1.772653013467788696e-01
1.947963982820510864e-01
2.200024873018264771e-01
2.377237379550933838e-01
2.399791628122329712e-01
2.316353023052215576e-01
2.253057062625885010e-01
2.307153344154357910e-01
2.463408410549163818e-01
2.606546878814697266e-01
2.619821727275848389e-01
2.485312521457672119e-01
2.298038452863693237e-01
2.188874781131744385e-01
2.217812985181808472e-01
2.324705272912979126e-01
2.377538830041885376e-01
2.283887118101119995e-01
2.068582326173782349e-01
1.853701174259185791e-01
1.763166636228561401e-01
1.823278665542602539e-01
1.944416761398315430e-01
1.993310302495956421e-01
1.903267800807952881e-01
1.725990027189254761e-01
1.585479974746704102e-01
1.577820032835006714e-01
1.691749691963195801e-01
1.817329674959182739e-01
1.836688667535781860e-01
1.721331626176834106e-01
1.552598476409912109e-01
1.452929377555847168e-01
1.486646682024002075e-01
1.606608480215072632e-01
1.691748052835464478e-01
1.649973392486572266e-01
1.494954973459243774e-01
1.334758400917053223e-01
1.284245252609252930e-01
1.373978257179260254e-01
1.523492485284805298e-01
1.605783998966217041e-01
1.551914215087890625e-01
1.406901925802230835e-01
1.288229078054428101e-01
1.284781247377395630e-01
1.377432495355606079e-01
1.446173936128616333e-01
1.363494545221328735e-01
1.101813688874244690e-01
7.658384740352630615e-02
5.294981226325035095e-02
5.330355465412139893e-02
8.150970190763473511e-02
1.331812441349029541e-01
2.035593390464782715e-01
2.936644852161407471e-01
4.083648324012756348e-01
5.481948852539062500e-01
7.012315988540649414e-01
8.429978489875793457e-01
9.469773769378662109e-01
9.982495307922363281e-01
1.000000000000000000e+00
9.674091339111328125e-01
9.140620827674865723e-01
8.409786820411682129e-01
7.386365532875061035e-01
6.002414822578430176e-01
4.350325167179107666e-01
2.694907784461975098e-01
1.347622573375701904e-01
5.004246160387992859e-02
1.329708844423294067e-02
5.724264308810234070e-03
6.063832435756921768e-03
3.506317501887679100e-03
0.000000000000000000e+00
3.234858624637126923e-03
1.711315661668777466e-02
3.708510473370552063e-02
5.336970835924148560e-02
5.940975248813629150e-02
5.754636228084564209e-02
5.712271854281425476e-02
6.678020209074020386e-02
8.666546642780303955e-02
1.073825433850288391e-01
1.171620711684226990e-01
1.117332205176353455e-01
9.822137653827667236e-02
8.959139138460159302e-02
9.473135322332382202e-02
1.112316846847534180e-01
1.273179948329925537e-01
1.314736306667327881e-01
1.220673993229866028e-01
1.083282530307769775e-01
1.028539389371871948e-01
1.115932539105415344e-01
1.290464699268341064e-01
1.426220238208770752e-01
1.429387778043746948e-01
1.314516365528106689e-01
1.190764605998992920e-01
1.174563392996788025e-01
1.293989121913909912e-01
1.465870141983032227e-01
1.563753485679626465e-01
1.523018330335617065e-01
1.393705457448959351e-01
1.297634094953536987e-01
1.328053474426269531e-01
1.471670866012573242e-01
1.617517322301864624e-01
1.649838238954544067e-01
1.546486616134643555e-01
1.398797333240509033e-01
1.337621212005615234e-01
1.428326964378356934e-01
1.615358293056488037e-01
1.765485256910324097e-01
1.777495592832565308e-01
1.663841307163238525e-01
1.536793261766433716e-01
1.518716663122177124e-01
1.643947809934616089e-01
1.829522550106048584e-01
1.943611800670623779e-01
1.912754178047180176e-01
1.780078113079071045e-01
1.667075604200363159e-01
1.676767319440841675e-01
1.808719933032989502e-01
1.958051621913909912e-01
2.001375854015350342e-01
1.899901330471038818e-01
1.729019135236740112e-01
1.614929735660552979e-01
1.631960272789001465e-01
1.741818040609359741e-01
1.825706362724304199e-01
1.784150004386901855e-01
1.624917984008789062e-01
1.455604881048202515e-01
1.398051083087921143e-01
1.488292366266250610e-01
1.644562184810638428e-01
1.731217205524444580e-01
1.669961363077163696e-01
1.503387242555618286e-01
1.358508616685867310e-01
1.345672160387039185e-01
1.468676030635833740e-01
1.620673388242721558e-01
1.672250628471374512e-01
1.577732115983963013e-01
1.409808844327926636e-01
1.298135966062545776e-01
1.325993835926055908e-01
1.462221890687942505e-01
1.588233560323715210e-01
1.597342044115066528e-01
1.481271237134933472e-01
1.333565711975097656e-01
1.271065026521682739e-01
1.339262127876281738e-01
1.475082784891128540e-01
1.556631326675415039e-01
1.505332738161087036e-01
1.351815015077590942e-01
1.210094243288040161e-01
1.187634542584419250e-01
1.297389566898345947e-01
1.445981562137603760e-01
1.508219987154006958e-01
1.432892680168151855e-01
1.284365803003311157e-01
1.186482533812522888e-01
1.223289147019386292e-01
1.366675198078155518e-01
1.499602049589157104e-01
1.511899232864379883e-01
1.393330693244934082e-01
1.241355985403060913e-01
1.182221621274948120e-01
1.267783343791961670e-01
1.433695852756500244e-01
1.940705776214599609e-01
1.847050935029983521e-01
1.711243093013763428e-01
1.656930744647979736e-01
1.740339547395706177e-01
1.900008171796798706e-01
2.003923952579498291e-01
1.958583295345306396e-01
1.790973693132400513e-01
1.631639301776885986e-01
1.616684347391128540e-01
1.782594770193099976e-01
2.034879326820373535e-01
2.221013307571411133e-01
2.250294238328933716e-01
2.161577194929122925e-01
2.081239074468612671e-01
2.116532921791076660e-01
2.265237718820571899e-01
2.416634410619735718e-01
2.443766742944717407e-01
2.310082763433456421e-01
2.099348604679107666e-01
1.948714256286621094e-01
1.941463202238082886e-01
2.041871845722198486e-01
2.124671489000320435e-01
2.078667283058166504e-01
1.899303495883941650e-01
1.690591275691986084e-01
1.582873910665512085e-01
1.627534627914428711e-01
1.755513548851013184e-01
1.833330839872360229e-01
1.773740053176879883e-01
1.606649011373519897e-01
1.450634002685546875e-01
1.416754424571990967e-01
1.517191082239151001e-01
1.655938029289245605e-01
1.707797050476074219e-01
1.621873974800109863e-01
1.461709737777709961e-01
1.350587457418441772e-01
1.371086090803146362e-01
1.495916992425918579e-01
1.609235703945159912e-01
1.602666229009628296e-01
1.466792523860931396e-01
1.297177523374557495e-01
1.218089014291763306e-01
1.282237321138381958e-01
1.427151858806610107e-01
1.525718122720718384e-01
1.492569744586944580e-01
1.353771835565567017e-01
1.217784434556961060e-01
1.181815564632415771e-01
1.243212595582008362e-01
1.294467449188232422e-01
1.207508817315101624e-01
9.469523280858993530e-02
6.181906908750534058e-02
4.151176661252975464e-02
5.125116556882858276e-02
9.772458672523498535e-02
1.757527142763137817e-01
2.750895321369171143e-01
3.885127604007720947e-01
5.135775804519653320e-01
6.476833224296569824e-01
7.815146446228027344e-01
8.970509767532348633e-01
9.738914966583251953e-01
1.000000000000000000e+00
9.778636097908020020e-01
9.203649163246154785e-01
8.400929570198059082e-01
7.410431504249572754e-01
6.200332641601562500e-01
4.764166176319122314e-01
3.215293586254119873e-01
1.787114292383193970e-01
7.255672663450241089e-02
1.527534238994121552e-02
0.000000000000000000e+00
6.160124205052852631e-03
1.274421531707048416e-02
1.040786691009998322e-02
3.661103313788771629e-03
3.585365368053317070e-03
1.708893477916717529e-02
4.044715687632560730e-02
6.204760074615478516e-02
7.197634130716323853e-02
7.023651152849197388e-02
6.623788177967071533e-02
7.093725353479385376e-02
8.755430579185485840e-02
1.084635630249977112e-01
1.212051436305046082e-01
1.189628094434738159e-01
1.064176484942436218e-01
9.594704955816268921e-02
9.786815941333770752e-02
1.119167134165763855e-01
1.275695860385894775e-01
1.328786462545394897e-01
1.245535761117935181e-01
1.106877848505973816e-01
1.040648370981216431e-01
1.118133142590522766e-01
1.295106261968612671e-01
1.446596831083297729e-01
1.469835191965103149e-01
1.368751376867294312e-01
1.247819438576698303e-01
1.226188018918037415e-01
1.340132355690002441e-01
1.513364762067794800e-01
1.618225425481796265e-01
1.581806987524032593e-01
1.447780579328536987e-01
1.338895857334136963e-01
1.360792368650436401e-01
1.515277922153472900e-01
1.697104722261428833e-01
1.778536140918731689e-01
1.712973564863204956e-01
1.570276767015457153e-01
1.476719081401824951e-01
1.515926569700241089e-01
1.660663336515426636e-01
1.795896589756011963e-01
1.818171739578247070e-01
1.722035706043243408e-01
1.605188697576522827e-01
1.589196473360061646e-01
1.717781275510787964e-01
1.917032748460769653e-01
2.050794064998626709e-01
2.031075954437255859e-01
1.892464011907577515e-01
1.763322800397872925e-01
1.765242516994476318e-01
1.912768334150314331e-01
2.099822908639907837e-01
2.182889133691787720e-01
2.097911238670349121e-01
1.909791529178619385e-01
1.755704432725906372e-01
1.736816167831420898e-01
1.838183104991912842e-01
1.945156157016754150e-01
1.940587311983108521e-01
1.803537905216217041e-01
1.621821373701095581e-01
1.518952846527099609e-01
1.552799493074417114e-01
1.668984591960906982e-01
1.747383177280426025e-01
1.704464554786682129e-01
1.563355028629302979e-01
1.432794332504272461e-01
1.418806016445159912e-01
1.536909341812133789e-01
1.695069670677185059e-01
1.766396760940551758e-01
1.693016588687896729e-01
1.531959921121597290e-01
1.408940255641937256e-01
1.419681906700134277e-01
1.553576588630676270e-01
1.700196862220764160e-01
1.739549338817596436e-01
1.639840304851531982e-01
1.480282098054885864e-01
1.385041624307632446e-01
1.422834843397140503e-01
1.548726111650466919e-01
1.641388088464736938e-01
1.605613380670547485e-01
1.453782021999359131e-01
1.297195553779602051e-01
1.256889849901199341e-01
1.364747136831283569e-01
1.533981859683990479e-01
1.627807915210723877e-01
1.571169197559356689e-01
1.411424726247787476e-01
1.276352852582931519e-01
1.271535307168960571e-01
1.394923776388168335e-01
1.539392173290252686e-01
1.583288908004760742e-01
1.495248526334762573e-01
1.357606500387191772e-01
1.296001970767974854e-01
1.376885026693344116e-01
1.549229919910430908e-01
1.920852214097976685e-01
1.805273592472076416e-01
1.721344888210296631e-01
1.750434935092926025e-01
1.876140534877777100e-01
1.994799971580505371e-01
2.000772505998611450e-01
1.878442615270614624e-01
1.720685213804244995e-01
1.658243387937545776e-01
1.759920120239257812e-01
1.977321505546569824e-01
2.180125564336776733e-01
2.257941812276840210e-01
2.203880399465560913e-01
2.110555768013000488e-01
2.089129835367202759e-01
2.175875902175903320e-01
2.302443683147430420e-01
2.354877591133117676e-01
2.272512167692184448e-01
2.100215703248977661e-01
1.951018869876861572e-01
1.914988309144973755e-01
1.984328925609588623e-01
2.059670388698577881e-01
2.034107893705368042e-01
1.885648071765899658e-01
1.696263253688812256e-01
1.586125642061233521e-01
1.619032174348831177e-01
1.747434437274932861e-01
1.848596036434173584e-01
1.823578476905822754e-01
1.674794107675552368e-01
1.499811410903930664e-01
1.414134502410888672e-01
1.461825817823410034e-01
1.581106036901473999e-01
1.654362827539443970e-01
1.605006903409957886e-01
1.458470970392227173e-01
1.316126734018325806e-01
1.273916512727737427e-01
1.343094855546951294e-01
1.442956477403640747e-01
1.468877941370010376e-01
1.384217888116836548e-01
1.251890510320663452e-01
1.179881542921066284e-01
1.233070418238639832e-01
1.376754790544509888e-01
1.501443386077880859e-01
1.510627865791320801e-01
1.399522423744201660e-01
1.253139823675155640e-01
1.171647086739540100e-01
1.183306351304054260e-01
1.215792968869209290e-01
1.151358783245086670e-01
9.318356215953826904e-02
6.270880997180938721e-02
4.111043736338615417e-02
4.707333818078041077e-02
9.061941504478454590e-02
1.692076027393341064e-01
2.720114588737487793e-01
3.883088231086730957e-01
5.126358270645141602e-01
6.424098610877990723e-01
7.717420458793640137e-01
8.867235183715820312e-01
9.680467844009399414e-01
1.000000000000000000e+00
9.787524342536926270e-01
9.129176735877990723e-01
8.162772655487060547e-01
6.990887522697448730e-01
5.657471418380737305e-01
4.200975000858306885e-01
2.728566527366638184e-01
1.430840045213699341e-01
5.058049783110618591e-02
5.143030080944299698e-03
0.000000000000000000e+00
1.531026326119899750e-02
2.928886935114860535e-02
3.045107424259185791e-02
2.201441302895545959e-02
1.613966375589370728e-02
2.330944128334522247e-02
4.382869973778724670e-02
6.740736216306686401e-02
8.151447027921676636e-02
8.137509971857070923e-02
7.333750277757644653e-02
6.915401667356491089e-02
7.636608183383941650e-02
9.209074825048446655e-02
1.056430414319038391e-01
1.076825931668281555e-01
9.810204058885574341e-02
8.598906546831130981e-02
8.226852864027023315e-02
9.071173518896102905e-02
1.049512252211570740e-01
1.138664633035659790e-01
1.109403371810913086e-01
9.977856278419494629e-02
9.084203094244003296e-02
9.295960515737533569e-02
1.059785187244415283e-01
1.207286044955253601e-01
1.268755495548248291e-01
1.219381615519523621e-01
1.130363196134567261e-01
1.098691076040267944e-01
1.154716610908508301e-01
1.240612491965293884e-01
1.269458383321762085e-01
1.211800873279571533e-01
1.128537654876708984e-01
1.117447167634963989e-01
1.218309476971626282e-01
1.369172632694244385e-01
1.460162550210952759e-01
1.428599059581756592e-01
1.312689930200576782e-01
1.221834048628807068e-01
1.246964782476425171e-01
1.386889368295669556e-01
1.545221507549285889e-01
1.607171893119812012e-01
1.534400582313537598e-01
1.397257596254348755e-01
1.320218592882156372e-01
1.384077966213226318e-01
1.558462083339691162e-01
1.724400371313095093e-01
1.768985539674758911e-01
1.675891578197479248e-01
1.534967869520187378e-01
1.466586291790008545e-01
1.525269746780395508e-01
1.655578017234802246e-01
1.740346550941467285e-01
1.698757410049438477e-01
1.554463952779769897e-01
1.413105577230453491e-01
1.378413587808609009e-01
1.468688845634460449e-01
1.599609106779098511e-01
1.651088446378707886e-01
1.567316055297851562e-01
1.401927173137664795e-01
1.272710412740707397e-01
1.267604529857635498e-01
1.372103095054626465e-01
1.482837796211242676e-01
1.493572294712066650e-01
1.385056227445602417e-01
1.237848773598670959e-01
1.165053620934486389e-01
1.219265460968017578e-01
1.349402517080307007e-01
1.441305130720138550e-01
1.411384195089340210e-01
1.273995488882064819e-01
1.128458678722381592e-01
1.080369874835014343e-01
1.157407313585281372e-01
1.287638098001480103e-01
1.358485668897628784e-01
1.311527043581008911e-01
1.189962401986122131e-01
1.099739372730255127e-01
1.121050715446472168e-01
1.238623112440109253e-01
1.350537091493606567e-01
1.351802796125411987e-01
1.223409473896026611e-01
1.050803288817405701e-01
9.565374255180358887e-02
1.005064100027084351e-01
1.151729598641395569e-01
1.277990639209747314e-01
1.287454962730407715e-01
1.183680146932601929e-01
1.062216833233833313e-01
1.032278016209602356e-01
1.127498298883438110e-01
1.277837306261062622e-01
1.367177218198776245e-01
1.331307590007781982e-01
1.212281808257102966e-01
1.121397614479064941e-01
1.148537024855613708e-01
1.286101490259170532e-01
1.432032883167266846e-01
1.474028527736663818e-01
2.310101091861724854e-01
2.218000292778015137e-01
2.073764801025390625e-01
2.000700235366821289e-01
2.062916308641433716e-01
2.208601683378219604e-01
2.310821115970611572e-01
2.275916785001754761e-01
2.126474827527999878e-01
1.986937224864959717e-01
1.988611370325088501e-01
2.164384722709655762e-01
2.419882416725158691e-01
2.604579627513885498e-01
2.627814710140228271e-01
2.524283230304718018e-01
2.417138516902923584e-01
2.416051030158996582e-01
2.529444396495819092e-01
2.659546136856079102e-01
2.683824598789215088e-01
2.560566067695617676e-01
2.362455129623413086e-01
2.216696590185165405e-01
2.202927023172378540e-01
2.288160026073455811e-01
2.352172285318374634e-01
2.289757877588272095e-01
2.101304084062576294e-01
1.894067525863647461e-01
1.796488761901855469e-01
1.855370849370956421e-01
1.996389478445053101e-01
2.083088755607604980e-01
2.028252482414245605e-01
1.861853301525115967e-01
1.701714098453521729e-01
1.657575219869613647e-01
1.741293370723724365e-01
1.858402490615844727e-01
1.886606514453887939e-01
1.778821200132369995e-01
1.602690219879150391e-01
1.483895480632781982e-01
1.506338864564895630e-01
1.642154157161712646e-01
1.772587448358535767e-01
1.782275438308715820e-01
1.653233468532562256e-01
1.477387100458145142e-01
1.381396353244781494e-01
1.426201611757278442e-01
1.557946801185607910e-01
1.654550135135650635e-01
1.628660857677459717e-01
1.497396975755691528e-01
1.360814422369003296e-01
1.312073767185211182e-01
1.351709961891174316e-01
1.380647122859954834e-01
1.280846297740936279e-01
1.024750471115112305e-01
7.212909311056137085e-02
5.640206113457679749e-02
7.256586104631423950e-02
1.267866641283035278e-01
2.127739489078521729e-01
3.186144232749938965e-01
4.352978169918060303e-01
5.591341853141784668e-01
6.876245737075805664e-01
8.127117753028869629e-01
9.180551767349243164e-01
9.844189286231994629e-01
1.000000000000000000e+00
9.672400355339050293e-01
8.995387554168701172e-01
8.109484314918518066e-01
7.074535489082336426e-01
5.873395204544067383e-01
4.497827887535095215e-01
3.039644658565521240e-01
1.702183783054351807e-01
7.038720697164535522e-02
1.560316793620586395e-02
0.000000000000000000e+00
5.042786244302988052e-03
1.153307966887950897e-02
1.059630420058965683e-02
5.845132749527692795e-03
7.013541646301746368e-03
2.014091052114963531e-02
4.168739169836044312e-02
6.109438836574554443e-02
6.954812258481979370e-02
6.741238385438919067e-02
6.391642242670059204e-02
6.978236138820648193e-02
8.808905631303787231e-02
1.112259253859519958e-01
1.264740824699401855e-01
1.261719018220901489e-01
1.141375228762626648e-01
1.025460809469223022e-01
1.025096699595451355e-01
1.153348609805107117e-01
1.315207779407501221e-01
1.387405842542648315e-01
1.322702914476394653e-01
1.188643127679824829e-01
1.110895425081253052e-01
1.171152740716934204e-01
1.339395195245742798e-01
1.497101038694381714e-01
1.536205708980560303e-01
1.446801573038101196e-01
1.322023421525955200e-01
1.279984712600708008e-01
1.365596503019332886e-01
1.513334959745407104e-01
1.604483127593994141e-01
1.569087952375411987e-01
1.445725560188293457e-01
1.348291486501693726e-01
1.374224722385406494e-01
1.522866934537887573e-01
1.691647320985794067e-01
1.758266836404800415e-01
1.681853681802749634e-01
1.538175791501998901e-01
1.456099450588226318e-01
1.517492979764938354e-01
1.688380092382431030e-01
1.844920516014099121e-01
1.874275505542755127e-01
1.767393946647644043e-01
1.623693406581878662e-01
1.572451144456863403e-01
1.669711172580718994e-01
1.852809041738510132e-01
1.989822387695312500e-01
1.986602246761322021e-01
1.861794888973236084e-01
1.728170663118362427e-01
1.701754629611968994e-01
1.806547343730926514e-01
1.955467462539672852e-01
2.018831074237823486e-01
1.934088915586471558e-01
1.756623387336730957e-01
1.611695587635040283e-01
1.594964265823364258e-01
1.695104837417602539e-01
1.801456362009048462e-01
1.797590851783752441e-01
1.659781038761138916e-01
1.476892828941345215e-01
1.378706246614456177e-01
1.434065848588943481e-01
1.592961698770523071e-01
1.723471432924270630e-01
1.716853976249694824e-01
1.574897468090057373e-01
1.406216174364089966e-01
1.338663697242736816e-01
1.417480856180191040e-01
1.569195240736007690e-01
1.661933213472366333e-01
1.612236797809600830e-01
1.452012956142425537e-01
1.298185437917709351e-01
1.258539557456970215e-01
1.343992054462432861e-01
1.463594734668731689e-01
1.502790302038192749e-01
1.421593427658081055e-01
1.287579089403152466e-01
1.217416077852249146e-01
1.279146075248718262e-01
1.429891586303710938e-01
1.546748727560043335e-01
1.528738141059875488e-01
1.381484270095825195e-01
1.212867870926856995e-01
1.148863881826400757e-01
1.234080642461776733e-01
1.396648436784744263e-01
1.506480276584625244e-01
1.481796950101852417e-01
1.351872533559799194e-01
1.227133274078369141e-01
1.209143921732902527e-01
1.307037919759750366e-01
1.430785655975341797e-01
1.466965973377227783e-01
1.379600316286087036e-01
1.241582334041595459e-01
1.172804236412048340e-01
1.244345679879188538e-01
1.415619701147079468e-01
1.940691322088241577e-01
1.809933185577392578e-01
1.722768694162368774e-01
1.755931824445724487e-01
1.884476542472839355e-01
2.001067996025085449e-01
2.006537914276123047e-01
1.896914094686508179e-01
1.769604980945587158e-01
1.747079193592071533e-01
1.879148632287979126e-01
2.097944319248199463e-01
2.265421301126480103e-01
2.282111644744873047e-01
2.164998650550842285e-01
2.030143439769744873e-01
1.999727636575698853e-01
2.103961855173110962e-01
2.256935834884643555e-01
2.326211333274841309e-01
2.241897583007812500e-01
2.051274776458740234e-01
1.877332925796508789e-01
1.818167269229888916e-01
1.869860887527465820e-01
1.935135126113891602e-01
1.908617317676544189e-01
1.768642365932464600e-01
1.593279987573623657e-01
1.494534015655517578e-01
1.528207808732986450e-01
1.646312624216079712e-01
1.733956784009933472e-01
1.702761948108673096e-01
1.561869084835052490e-01
1.406252831220626831e-01
1.341620236635208130e-01
1.399946957826614380e-01
1.513400971889495850e-01
1.568446606397628784e-01
1.502218991518020630e-01
1.355939656496047974e-01
1.241069659590721130e-01
1.249763444066047668e-01
1.376375257968902588e-01
1.519748419523239136e-01
1.564303338527679443e-01
1.476915180683135986e-01
1.333370804786682129e-01
1.256178915500640869e-01
1.314624249935150146e-01
1.466453671455383301e-01
1.590420007705688477e-01
1.584219038486480713e-01
1.442385315895080566e-01
1.249613761901855469e-01
1.104536131024360657e-01
1.038399562239646912e-01
9.932709485292434692e-02
8.842270821332931519e-02
6.983614712953567505e-02
5.469578504562377930e-02
6.226951628923416138e-02
1.095152795314788818e-01
2.004515677690505981e-01
3.236714005470275879e-01
4.593985080718994141e-01
5.905410051345825195e-01
7.093569040298461914e-01
8.150424957275390625e-01
9.058632254600524902e-01
9.725615382194519043e-01
1.000000000000000000e+00
9.756975769996643066e-01
8.987049460411071777e-01
7.806380987167358398e-01
6.401211023330688477e-01
4.945916235446929932e-01
3.557422757148742676e-01
2.305434793233871460e-01
1.257320344448089600e-01
4.952811449766159058e-02
7.984508760273456573e-03
0.000000000000000000e+00
1.457363460212945938e-02
3.454601392149925232e-02
4.490912333130836487e-02
4.137731716036796570e-02
3.188481926918029785e-02
2.951979264616966248e-02
4.195654392242431641e-02
6.523922085762023926e-02
8.641879260540008545e-02
9.368138760328292847e-02
8.569564670324325562e-02
7.262383401393890381e-02
6.817082315683364868e-02
7.884151488542556763e-02
9.897616505622863770e-02
1.153973042964935303e-01
1.184589415788650513e-01
1.095737442374229431e-01
9.917546808719635010e-02
9.822309762239456177e-02
1.089595034718513489e-01
1.240889132022857666e-01
1.335848122835159302e-01
1.337029635906219482e-01
1.297233551740646362e-01
1.298632770776748657e-01
1.366755962371826172e-01
1.443269252777099609e-01
1.443971097469329834e-01
1.341240853071212769e-01
1.200892552733421326e-01
1.134577095508575439e-01
1.203983798623085022e-01
1.361184418201446533e-01
1.489044129848480225e-01
1.495379358530044556e-01
1.390818208456039429e-01
1.276935338973999023e-01
1.263749599456787109e-01
1.379867643117904663e-01
1.547028273344039917e-01
1.643944829702377319e-01
1.605674326419830322e-01
1.478814035654067993e-01
1.381496489048004150e-01
1.408932209014892578e-01
1.555492281913757324e-01
1.718725711107254028e-01
1.780718863010406494e-01
1.706491708755493164e-01
1.571724414825439453e-01
1.499379277229309082e-01
1.564303338527679443e-01
1.730809956789016724e-01
1.881611943244934082e-01
1.913692206144332886e-01
1.820761859416961670e-01
1.691549122333526611e-01
1.637439876794815063e-01
1.699379086494445801e-01
1.814603954553604126e-01
1.868205815553665161e-01
1.791188120841979980e-01
1.619011163711547852e-01
1.464278697967529297e-01
1.427436619997024536e-01
1.516830027103424072e-01
1.642393022775650024e-01
1.686617583036422729e-01
1.603676676750183105e-01
1.449172496795654297e-01
1.337726861238479614e-01
1.339385211467742920e-01
1.425809115171432495e-01
1.503596454858779907e-01
1.500212103128433228e-01
1.429566740989685059e-01
1.372401714324951172e-01
1.390998661518096924e-01
1.463373154401779175e-01
1.504042297601699829e-01
1.444759368896484375e-01
1.304566860198974609e-01
1.183540523052215576e-01
1.179333999752998352e-01
1.295712739229202271e-01
1.440157890319824219e-01
1.491324007511138916e-01
1.399675458669662476e-01
1.229192093014717102e-01
1.105481684207916260e-01
1.117794290184974670e-01
1.246098354458808899e-01
1.377684921026229858e-01
1.399820446968078613e-01
1.292348355054855347e-01
1.139999181032180786e-01
1.061443611979484558e-01
1.115151867270469666e-01
1.251015961170196533e-01
1.350324898958206177e-01
1.324152499437332153e-01
1.186793744564056396e-01
1.041865721344947815e-01
1.001990959048271179e-01
1.097900122404098511e-01
1.251207292079925537e-01
1.338782012462615967e-01
1.293691992759704590e-01
1.160987019538879395e-01
1.057377532124519348e-01
1.075041145086288452e-01
1.205532550811767578e-01
1.347744166851043701e-01
1.392797231674194336e-01
1.316927224397659302e-01
