2.284134328365325928e-01
2.215951979160308838e-01
2.140988111495971680e-01
2.144663035869598389e-01
2.241502255201339722e-01
2.358414679765701294e-01
2.393459081649780273e-01
2.303680330514907837e-01
2.145982980728149414e-01
2.037490308284759521e-01
2.067501842975616455e-01
2.227064669132232666e-01
2.413906753063201904e-01
2.512684166431427002e-01
2.484591156244277954e-01
2.393048405647277832e-01
2.347715795040130615e-01
2.413205206394195557e-01
2.554811537265777588e-01
2.667741477489471436e-01
2.662173807621002197e-01
2.537070512771606445e-01
2.377557605504989624e-01
2.285577058792114258e-01
2.299265861511230469e-01
2.362754940986633301e-01
2.372996211051940918e-01
2.267197817564010620e-01
2.077138572931289673e-01
1.903377622365951538e-01
1.838259547948837280e-01
1.893540918827056885e-01
1.989679932594299316e-01
2.019044458866119385e-01
1.934500038623809814e-01
1.783941835165023804e-01
1.670284569263458252e-01
1.666157990694046021e-01
1.752055734395980835e-01
1.830353438854217529e-01
1.808517575263977051e-01
1.677663177251815796e-01
1.521608531475067139e-01
1.450493931770324707e-01
1.512615978717803955e-01
1.651759892702102661e-01
1.750159859657287598e-01
1.722100079059600830e-01
1.581545323133468628e-01
1.428999006748199463e-01
1.371752023696899414e-01
1.440963298082351685e-01
1.567663997411727905e-01
1.640232056379318237e-01
1.594779640436172485e-01
1.462664306163787842e-01
1.334605813026428223e-01
1.277780085802078247e-01
1.272400319576263428e-01
1.226787343621253967e-01
1.061171889305114746e-01
7.941604405641555786e-02
5.583077296614646912e-02
5.344033241271972656e-02
8.565128594636917114e-02
1.546882838010787964e-01
2.526497244834899902e-01
3.684675097465515137e-01
4.939334094524383545e-01
6.239797472953796387e-01
7.527785301208496094e-01
8.691352009773254395e-01
9.566947221755981445e-01
1.000000000000000000e+00
9.923707246780395508e-01
9.388957023620605469e-01
8.515391945838928223e-01
7.413894534111022949e-01
6.142438650131225586e-01
4.734576642513275146e-01
3.265474736690521240e-01
1.891952753067016602e-01
8.156765252351760864e-02
1.830262504518032074e-02
0.000000000000000000e+00
1.212769653648138046e-02
3.266194835305213928e-02
4.445048794150352478e-02
4.335392266511917114e-02
3.758133947849273682e-02
3.906919062137603760e-02
5.314679443836212158e-02
7.419902086257934570e-02
9.045656770467758179e-02
9.406981617212295532e-02
8.748996257781982422e-02
8.098527044057846069e-02
8.413054794073104858e-02
9.766441583633422852e-02
1.129119321703910828e-01
1.190718561410903931e-01
1.125849038362503052e-01
1.002211049199104309e-01
9.357623755931854248e-02
9.989937394857406616e-02
1.160502359271049500e-01
1.309475451707839966e-01
1.345424503087997437e-01
1.258108317852020264e-01
1.133333742618560791e-01
1.082228869199752808e-01
1.153360158205032349e-01
1.294874250888824463e-01
1.399220824241638184e-01
1.392002701759338379e-01
1.291626691818237305e-01
1.190310940146446228e-01
1.179298311471939087e-01
1.274762898683547974e-01
1.403100341558456421e-01
1.463368982076644897e-01
1.413934081792831421e-01
1.307517439126968384e-01
1.246501654386520386e-01
1.300135850906372070e-01
1.443512290716171265e-01
1.576259583234786987e-01
1.604686081409454346e-01
1.521179676055908203e-01
1.409915238618850708e-01
1.378795802593231201e-01
1.471962928771972656e-01
1.632860898971557617e-01
1.747836768627166748e-01
1.737571209669113159e-01
1.622225642204284668e-01
1.505563110113143921e-01
1.493601799011230469e-01
1.609670221805572510e-01
1.774497777223587036e-01
1.869534999132156372e-01
1.833332777023315430e-01
1.709126532077789307e-01
1.606671214103698730e-01
1.613278537988662720e-01
1.721024215221405029e-01
1.833767741918563843e-01
1.847347468137741089e-01
1.737349927425384521e-01
1.577879488468170166e-01
1.481422334909439087e-01
1.510163992643356323e-01
1.626008152961730957e-01
1.722019761800765991e-01
1.711123883724212646e-01
1.596822440624237061e-01
1.464420706033706665e-01
1.411616951227188110e-01
1.469314098358154297e-01
1.577640175819396973e-01
1.635641753673553467e-01
1.587037295103073120e-01
1.466809064149856567e-01
1.372420340776443481e-01
1.386650204658508301e-01
1.508572846651077271e-01
1.650364100933074951e-01
1.706573069095611572e-01
1.641365587711334229e-01
1.515437662601470947e-01
1.434606164693832397e-01
1.463312953710556030e-01
1.572805941104888916e-01
1.665165424346923828e-01
1.657803356647491455e-01
1.554872244596481323e-01
1.441372483968734741e-01
1.413820385932922363e-01
1.500841081142425537e-01
1.638280153274536133e-01
1.719351112842559814e-01
1.681500226259231567e-01
1.556408852338790894e-01
1.444038152694702148e-01
1.432734578847885132e-01
1.527397483587265015e-01
1.645170748233795166e-01
1.683591455221176147e-01
1.605240702629089355e-01
1.468304693698883057e-01
1.377947181463241577e-01
1.401410549879074097e-01
1.513009965419769287e-01
1.613961905241012573e-01
1.616762429475784302e-01
1.518826186656951904e-01
1.404333859682083130e-01
1.375690698623657227e-01
1.470852196216583252e-01
1.629028469324111938e-01
2.051508426666259766e-01
1.965144872665405273e-01
1.865980774164199829e-01
1.860219538211822510e-01
1.976484954357147217e-01
2.135981023311614990e-01
2.214236408472061157e-01
2.144233882427215576e-01
1.972372829914093018e-01
1.821843236684799194e-01
1.800794601440429688e-01
1.922436207532882690e-01
2.099175155162811279e-01
2.214043140411376953e-01
2.213723957538604736e-01
2.143383473157882690e-01
2.102767080068588257e-01
2.162019014358520508e-01
2.300427109003067017e-01
2.420987337827682495e-01
2.430920451879501343e-01
2.321755588054656982e-01
2.176393121480941772e-01
2.102127224206924438e-01
2.143276482820510864e-01
2.242843061685562134e-01
2.288577705621719360e-01
2.205375283956527710e-01
2.016406506299972534e-01
1.823830157518386841e-01
1.727852374315261841e-01
1.748712360858917236e-01
1.813111007213592529e-01
1.817848831415176392e-01
1.717782467603683472e-01
1.562687903642654419e-01
1.454346626996994019e-01
1.463618129491806030e-01
1.570836901664733887e-01
1.678326129913330078e-01
1.688223183155059814e-01
1.581375449895858765e-01
1.428483128547668457e-01
1.331629902124404907e-01
1.342696398496627808e-01
1.422036588191986084e-01
1.472111493349075317e-01
1.420514881610870361e-01
1.283071935176849365e-01
1.152020543813705444e-01
1.122716069221496582e-01
1.213941723108291626e-01
1.350622326135635376e-01
1.423646211624145508e-01
1.379285454750061035e-01
1.262537389993667603e-01
1.174463480710983276e-01
1.184209659695625305e-01
1.264812052249908447e-01
1.305741220712661743e-01
1.200724691152572632e-01
9.383264183998107910e-02
6.199474260210990906e-02
3.991998732089996338e-02
3.948848322033882141e-02
6.424264609813690186e-02
1.117262914776802063e-01
1.800219267606735229e-01
2.718020677566528320e-01
3.912804722785949707e-01
5.366253852844238281e-01
6.936589479446411133e-01
8.375505805015563965e-01
9.429402947425842285e-01
9.960653781890869141e-01
1.000000000000000000e+00
9.685704708099365234e-01
9.140686988830566406e-01
8.376178741455078125e-01
7.309256196022033691e-01
5.888473987579345703e-01
4.216922819614410400e-01
2.558840513229370117e-01
1.220649331808090210e-01
3.902648389339447021e-02
4.615910816937685013e-03
0.000000000000000000e+00
3.553264075890183449e-03
3.515851218253374100e-03
1.002754899673163891e-03
3.422005102038383484e-03
1.506443042308092117e-02
3.256304562091827393e-02
4.740409925580024719e-02
5.340129509568214417e-02
5.230453610420227051e-02
5.214356631040573120e-02
6.051379442214965820e-02
7.763859629631042480e-02
9.547628462314605713e-02
1.039436608552932739e-01
9.939298778772354126e-02
8.781548589468002319e-02
8.023327589035034180e-02
8.423014730215072632e-02
9.773362427949905396e-02
1.107878312468528748e-01
1.140136495232582092e-01
1.064943298697471619e-01
9.645247459411621094e-02
9.447510540485382080e-02
1.046478971838951111e-01
1.209184974431991577e-01
1.316487193107604980e-01
1.292565017938613892e-01
1.164876073598861694e-01
1.041904613375663757e-01
1.028612107038497925e-01
1.143939122557640076e-01
1.305282115936279297e-01
1.394667178392410278e-01
1.354571133852005005e-01
1.231780350208282471e-01
1.136011704802513123e-01
1.151434183120727539e-01
1.268210560083389282e-01
1.391299962997436523e-01
1.420038640499114990e-01
1.332464516162872314e-01
1.204811781644821167e-01
1.150030493736267090e-01
1.227565929293632507e-01
1.393266469240188599e-01
1.533527970314025879e-01
1.556774228811264038e-01
1.468165814876556396e-01
1.361036598682403564e-01
1.341765820980072021e-01
1.441533565521240234e-01
1.589007228612899780e-01
1.669189929962158203e-01
1.620272099971771240e-01
1.484897732734680176e-01
1.374016255140304565e-01
1.378659754991531372e-01
1.493938118219375610e-01
1.624349653720855713e-01
1.662902086973190308e-01
1.578882187604904175e-01
1.440463066101074219e-01
1.356910169124603271e-01
1.389195173978805542e-01
1.501354575157165527e-01
1.590453535318374634e-01
1.574347168207168579e-01
1.460845172405242920e-01
1.337529420852661133e-01
1.300487667322158813e-01
1.375069469213485718e-01
1.493029594421386719e-01
1.545220315456390381e-01
1.473252624273300171e-01
1.317263692617416382e-01
1.183486506342887878e-01
1.163659393787384033e-01
1.262601763010025024e-01
1.395930945873260498e-01
1.458458900451660156e-01
1.408014595508575439e-01
1.295756101608276367e-01
1.219919919967651367e-01
1.243728846311569214e-01
1.342312842607498169e-01
1.423493772745132446e-01
1.406980305910110474e-01
1.293795853853225708e-01
1.168629899621009827e-01
1.132169812917709351e-01
1.220559701323509216e-01
1.372573226690292358e-01
1.474274396896362305e-01
1.451880335807800293e-01
1.330233961343765259e-01
1.208626925945281982e-01
1.181650459766387939e-01
1.261855214834213257e-01
1.369133740663528442e-01
1.398315578699111938e-01
1.310082972049713135e-01
1.164690554141998291e-01
1.073208674788475037e-01
1.108398586511611938e-01
1.244305744767189026e-01
1.376452744007110596e-01
1.405408382415771484e-01
1.317956894636154175e-01
1.195834279060363770e-01
1.148577928543090820e-01
1.224040016531944275e-01
1.367436051368713379e-01
1.844010651111602783e-01
1.741996854543685913e-01
1.665688753128051758e-01
1.696431189775466919e-01
1.825538575649261475e-01
1.958198994398117065e-01
1.988460570573806763e-01
1.888838261365890503e-01
1.735589355230331421e-01
1.651606708765029907e-01
1.715130060911178589e-01
1.899210959672927856e-01
2.093932926654815674e-01
2.193773984909057617e-01
2.178680747747421265e-01
2.122374922037124634e-01
2.126841545104980469e-01
2.234042435884475708e-01
2.386174649000167847e-01
2.469433695077896118e-01
2.409667670726776123e-01
2.235163748264312744e-01
2.054408937692642212e-01
1.972328871488571167e-01
2.007713764905929565e-01
2.079456299543380737e-01
2.075563073158264160e-01
1.948184221982955933e-01
1.751693785190582275e-01
1.597668379545211792e-01
1.566438674926757812e-01
1.643278896808624268e-01
1.730716973543167114e-01
1.728958040475845337e-01
1.618437618017196655e-01
1.473450958728790283e-01
1.400192379951477051e-01
1.448630392551422119e-01
1.568636894226074219e-01
1.649084240198135376e-01
1.609852612018585205e-01
1.468236595392227173e-01
1.323847472667694092e-01
1.277003735303878784e-01
1.347765326499938965e-01
1.458316147327423096e-01
1.499753892421722412e-01
1.423921734094619751e-01
1.283173263072967529e-01
1.186370626091957092e-01
1.211398765444755554e-01
1.340118050575256348e-01
1.470478028059005737e-01
1.499594151973724365e-01
1.406759768724441528e-01
1.266901046037673950e-01
1.183156445622444153e-01
1.198452562093734741e-01
1.251416355371475220e-01
1.222530230879783630e-01
1.033835709095001221e-01
7.266843318939208984e-02
4.494478926062583923e-02
3.756557404994964600e-02
6.121525540947914124e-02
1.162447929382324219e-01
1.965224742889404297e-01
2.965450584888458252e-01
4.147485494613647461e-01
5.497679114341735840e-01
6.940082311630249023e-01
8.302580118179321289e-01
9.361214041709899902e-01
9.940917491912841797e-01
1.000000000000000000e+00
9.626135230064392090e-01
8.951203823089599609e-01
8.051263093948364258e-01
6.918317675590515137e-01
5.529054403305053711e-01
3.950761854648590088e-01
2.385486215353012085e-01
1.102215498685836792e-01
3.005249239504337311e-02
0.000000000000000000e+00
3.642479423433542252e-03
1.697880029678344727e-02
2.286530099809169769e-02
1.873094961047172546e-02
1.355613861232995987e-02
1.799018308520317078e-02
3.493160381913185120e-02
5.719145014882087708e-02
7.384707033634185791e-02
7.935320585966110229e-02
7.755409181118011475e-02
7.773701101541519165e-02
8.647921681404113770e-02
1.018036380410194397e-01
1.146773174405097961e-01
1.169504150748252869e-01
1.087235659360885620e-01
9.847314655780792236e-02
9.629175066947937012e-02
1.058105081319808960e-01
1.209611222147941589e-01
1.308012902736663818e-01
1.285320371389389038e-01
1.170545741915702820e-01
1.064784228801727295e-01
1.062838509678840637e-01
1.175638586282730103e-01
1.320532560348510742e-01
1.387902796268463135e-01
1.332349330186843872e-01
1.209376379847526550e-01
1.128884255886077881e-01
1.166430562734603882e-01
1.299403905868530273e-01
1.423980891704559326e-01
1.440721154212951660e-01
1.337934285402297974e-01
1.201035752892494202e-01
1.143666058778762817e-01
1.218178644776344299e-01
1.373608261346817017e-01
1.495779305696487427e-01
1.502913832664489746e-01
1.409370005130767822e-01
1.309976279735565186e-01
1.302360892295837402e-01
1.409354060888290405e-01
1.559970378875732422e-01
1.646643280982971191e-01
1.614953428506851196e-01
1.507880389690399170e-01
1.430057734251022339e-01
1.464883536100387573e-01
1.604636758565902710e-01
1.754596531391143799e-01
1.809657812118530273e-01
1.740490496158599854e-01
1.616985499858856201e-01
1.549086570739746094e-01
1.596979945898056030e-01
1.720510423183441162e-01
1.812477409839630127e-01
1.788527518510818481e-01
1.658531874418258667e-01
1.516404747962951660e-01
1.464867442846298218e-01
1.532577872276306152e-01
1.649897396564483643e-01
1.703865975141525269e-01
1.630620211362838745e-01
1.468337327241897583e-01
1.326007246971130371e-01
1.298605203628540039e-01
1.390527486801147461e-01
1.511966884136199951e-01
1.552532464265823364e-01
1.472030729055404663e-01
1.331376433372497559e-01
1.240494251251220703e-01
1.268727034330368042e-01
1.387455463409423828e-01
1.491890996694564819e-01
1.490282267332077026e-01
1.379819363355636597e-01
1.248205378651618958e-01
1.203462406992912292e-01
1.285353899002075195e-01
1.430779844522476196e-01
1.525248587131500244e-01
1.497963070869445801e-01
1.379290521144866943e-01
1.273909360170364380e-01
1.274810284376144409e-01
1.384669393301010132e-01
1.512449234724044800e-01
1.548386812210083008e-01
1.455093920230865479e-01
1.298520565032958984e-01
1.193195208907127380e-01
1.212972328066825867e-01
1.331905275583267212e-01
1.444946527481079102e-01
1.454785615205764771e-01
1.351910829544067383e-01
1.218472570180892944e-01
1.160786524415016174e-01
1.225717291235923767e-01
1.361449658870697021e-01
1.459421664476394653e-01
1.443912982940673828e-01
1.334144920110702515e-01
1.224880144000053406e-01
1.209318861365318298e-01
1.302991956472396851e-01
1.429827809333801270e-01
2.125461548566818237e-01
1.993827223777770996e-01
1.918588578701019287e-01
1.967619359493255615e-01
2.109739482402801514e-01
2.237991541624069214e-01
2.254627346992492676e-01
2.150947004556655884e-01
2.011710405349731445e-01
1.948447227478027344e-01
2.012801766395568848e-01
2.157837897539138794e-01
2.278472036123275757e-01
2.299774438142776489e-01
2.236582189798355103e-01
2.176925092935562134e-01
2.209289073944091797e-01
2.343620061874389648e-01
2.497278898954391479e-01
2.559057176113128662e-01
2.481961399316787720e-01
2.323432266712188721e-01
2.200252562761306763e-01
2.196967750787734985e-01
2.297687381505966187e-01
2.398038059473037720e-01
2.389307171106338501e-01
2.248230576515197754e-01
2.052170783281326294e-01
1.914291083812713623e-01
1.894549429416656494e-01
1.954854875802993774e-01
1.993649750947952271e-01
1.934339851140975952e-01
1.790140420198440552e-01
1.649245917797088623e-01
1.601965576410293579e-01
1.663541495800018311e-01
1.759022027254104614e-01
1.783036589622497559e-01
1.688107103109359741e-01
1.522684097290039062e-01
1.393008679151535034e-01
1.378856599330902100e-01
1.469976305961608887e-01
1.574096679687500000e-01
1.591978222131729126e-01
1.497772783041000366e-01
1.357217878103256226e-01
1.273694336414337158e-01
1.305055022239685059e-01
1.415289640426635742e-01
1.502545773983001709e-01
1.485442072153091431e-01
1.370386630296707153e-01
1.246058493852615356e-01
1.209040358662605286e-01
1.281698197126388550e-01
1.384469270706176758e-01
1.392005383968353271e-01
1.230776458978652954e-01
9.395062923431396484e-02
6.438630074262619019e-02
4.788675904273986816e-02
5.157236382365226746e-02
7.511277496814727783e-02
1.163370162248611450e-01
1.777176856994628906e-01
2.668822407722473145e-01
3.897836208343505859e-01
5.417574644088745117e-01
7.031604051589965820e-01
8.456909060478210449e-01
9.455958008766174316e-01
9.945790171623229980e-01
1.000000000000000000e+00
9.750056266784667969e-01
9.262116551399230957e-01
8.488516807556152344e-01
7.337038516998291016e-01
5.808277130126953125e-01
4.079646468162536621e-01
2.453632354736328125e-01
1.211426854133605957e-01
4.713176190853118896e-02
1.518266182392835617e-02
5.860134493559598923e-03
2.603972563520073891e-03
0.000000000000000000e+00
1.664974028244614601e-03
1.202807109802961349e-02
2.958454750478267670e-02
4.684896767139434814e-02
5.636645853519439697e-02
5.716884508728981018e-02
5.561038106679916382e-02
6.007598713040351868e-02
7.388959079980850220e-02
9.194158017635345459e-02
1.041905432939529419e-01
1.037779301404953003e-01
9.297242015600204468e-02
8.180370181798934937e-02
8.083213120698928833e-02
9.281466156244277954e-02
1.105497404932975769e-01
1.225492507219314575e-01
1.222533360123634338e-01
1.129436194896697998e-01
1.045475900173187256e-01
1.055202409625053406e-01
1.158663555979728699e-01
1.271391212940216064e-01
1.297679543495178223e-01
1.214344352483749390e-01
1.091678664088249207e-01
1.036266535520553589e-01
1.104659214615821838e-01
1.255548894405364990e-01
1.380491405725479126e-01
1.392513215541839600e-01
1.297339946031570435e-01
1.186469197273254395e-01
1.162868440151214600e-01
1.254619508981704712e-01
1.391800045967102051e-01
1.463701426982879639e-01
1.410791575908660889e-01
1.275650113821029663e-01
1.167087256908416748e-01
1.175109520554542542e-01
1.297168582677841187e-01
1.440048217773437500e-01
1.496080905199050903e-01
1.432766765356063843e-01
1.317662000656127930e-01
1.263044774532318115e-01
1.334750056266784668e-01
1.497267931699752808e-01
1.639716923236846924e-01
1.667785048484802246e-01
1.580309867858886719e-01
1.466882973909378052e-01
1.434282660484313965e-01
1.517478972673416138e-01
1.651320606470108032e-01
1.722670793533325195e-01
1.665491163730621338e-01
1.515337824821472168e-01
1.380265951156616211e-01
1.355299055576324463e-01
1.446398794651031494e-01
1.564648002386093140e-01
1.599443256855010986e-01
1.508643031120300293e-01
1.351799666881561279e-01
1.241006180644035339e-01
1.250811368227005005e-01
1.356646716594696045e-01
1.454583108425140381e-01
1.448530554771423340e-01
1.329728662967681885e-01
1.184329763054847717e-01
1.124127656221389771e-01
1.197581887245178223e-01
1.348550319671630859e-01
1.459354609251022339e-01
1.445407718420028687e-01
1.323078572750091553e-01
1.192061826586723328e-01
1.157386973500251770e-01
1.245255768299102783e-01
1.381442248821258545e-01
1.452851146459579468e-01
1.402872651815414429e-01
1.275938749313354492e-01
1.178476214408874512e-01
1.192572787404060364e-01
1.307129710912704468e-01
1.426354497671127319e-01
1.449617296457290649e-01
1.355799287557601929e-01
1.218573898077011108e-01
1.145064085721969604e-01
1.189141273498535156e-01
1.307169795036315918e-01
1.393536627292633057e-01
1.369341611862182617e-01
1.247866079211235046e-01
1.122545376420021057e-01
1.090425252914428711e-01
1.172993183135986328e-01
1.297603845596313477e-01
1.357849240303039551e-01
1.303756833076477051e-01
1.183607280254364014e-01
1.103061512112617493e-01
1.140292659401893616e-01
1.279941499233245850e-01
1.424360126256942749e-01
2.219600081443786621e-01
2.118359357118606567e-01
2.025209516286849976e-01
2.021094411611557007e-01
2.106802761554718018e-01
2.202975451946258545e-01
2.220170944929122925e-01
2.140568792819976807e-01
2.037227153778076172e-01
2.016340345144271851e-01
2.130540758371353149e-01
2.331473827362060547e-01
2.502896785736083984e-01
2.551194429397583008e-01
2.475035935640335083e-01
2.361021041870117188e-01
2.312932461500167847e-01
2.370891273021697998e-01
2.482537627220153809e-01
2.547100782394409180e-01
2.498790919780731201e-01
2.359751015901565552e-01
2.219864726066589355e-01
2.164687365293502808e-01
2.205951958894729614e-01
2.270068228244781494e-01
2.258640080690383911e-01
2.132378667593002319e-01
1.946526318788528442e-01
1.807204782962799072e-01
1.789012998342514038e-01
1.872699409723281860e-01
1.959269493818283081e-01
1.949266195297241211e-01
1.822696924209594727e-01
1.651905179023742676e-01
1.542067378759384155e-01
1.548235416412353516e-01
1.632664501667022705e-01
1.697484552860260010e-01
1.667211800813674927e-01
1.550633460283279419e-01
1.430557221174240112e-01
1.394766122102737427e-01
1.461759805679321289e-01
1.563065499067306519e-01
1.598474532365798950e-01
1.521534919738769531e-01
1.379504352807998657e-01
1.274505704641342163e-01
1.281812489032745361e-01
1.387043148279190063e-01
1.495295315980911255e-01
1.502902060747146606e-01
1.374716162681579590e-01
1.160571351647377014e-01
9.436896443367004395e-02
7.705525308847427368e-02
6.189164146780967712e-02
4.354774206876754761e-02
2.180976420640945435e-02
6.972267758101224899e-03
1.729793287813663483e-02
6.976955384016036987e-02
1.697722822427749634e-01
3.069422245025634766e-01
4.602420628070831299e-01
6.083597540855407715e-01
7.378994822502136230e-01
8.443690538406372070e-01
9.269798994064331055e-01
9.818264245986938477e-01
1.000000000000000000e+00
9.723705053329467773e-01
8.966118693351745605e-01
7.802538275718688965e-01
6.383944153785705566e-01
4.884441196918487549e-01
3.450810015201568604e-01
2.186339944601058960e-01
1.165407449007034302e-01
4.487418755888938904e-02
6.855774670839309692e-03
0.000000000000000000e+00
1.463374868035316467e-02
3.610872849822044373e-02
5.078192800283432007e-02
5.279155075550079346e-02
4.695033654570579529e-02
4.425211623311042786e-02
5.320523679256439209e-02
7.297366112470626831e-02
9.382780641317367554e-02
1.046756058931350708e-01
1.019976511597633362e-01
9.243019670248031616e-02
8.723069727420806885e-02
9.337127208709716797e-02
1.080515831708908081e-01
1.212114542722702026e-01
1.240226104855537415e-01
1.162848621606826782e-01
1.062576174736022949e-01
1.040306389331817627e-01
1.132763028144836426e-01
1.282418966293334961e-01
1.382415890693664551e-01
1.365197151899337769e-01
1.255614608526229858e-01
1.149584129452705383e-01
1.137167438864707947e-01
1.229045540094375610e-01
1.349661648273468018e-01
1.399350017309188843e-01
1.338434666395187378e-01
1.218918487429618835e-01
1.141107827425003052e-01
1.174436062574386597e-01
1.302043348550796509e-01
1.433589458465576172e-01
1.477456092834472656e-01
1.412838697433471680e-01
1.303103119134902954e-01
1.242772564291954041e-01
1.282459199428558350e-01
1.388322561979293823e-01
1.471942514181137085e-01
1.467650979757308960e-01
1.388290077447891235e-01
1.313864439725875854e-01
1.323066204786300659e-01
1.425874233245849609e-01
1.549714505672454834e-01
1.597600430250167847e-01
1.529861092567443848e-01
1.398704797029495239e-01
1.307164132595062256e-01
1.329698413610458374e-01
1.452113837003707886e-01
1.580273509025573730e-01
1.614860892295837402e-01
1.530826538801193237e-01
1.394962519407272339e-01
1.310945004224777222e-01
1.336726695299148560e-01
1.437525153160095215e-01
1.515745818614959717e-01
1.494083851575851440e-01
1.380328983068466187e-01
1.259307414293289185e-01
1.224031522870063782e-01
1.300627738237380981e-01
1.426075398921966553e-01
1.500538289546966553e-01
1.469487249851226807e-01
1.367698758840560913e-01
1.288107484579086304e-01
1.305590718984603882e-01
1.414245069026947021e-01
1.529161781072616577e-01
1.556792259216308594e-01
1.473602503538131714e-01
1.348108500242233276e-01
1.286124140024185181e-01
1.347398310899734497e-01
1.495692878961563110e-01
1.625580489635467529e-01
1.647055149078369141e-01
1.557675600051879883e-01
1.440300494432449341e-01
1.396354883909225464e-01
1.464287638664245605e-01
1.587900370359420776e-01
1.663119792938232422e-01
1.625170558691024780e-01
1.503157317638397217e-01
1.394711881875991821e-01
1.388616561889648438e-01
1.492524445056915283e-01
1.625110208988189697e-01
1.681979894638061523e-01
1.620970219373703003e-01
1.494954824447631836e-01
1.406619548797607422e-01
1.426468342542648315e-01
1.536739319562911987e-01
1.645542085170745850e-01
1.664439439773559570e-01
1.582482606172561646e-01
1.473752558231353760e-01
1.435943990945816040e-01
1.511458903551101685e-01
1.650608777999877930e-01
1.750826984643936157e-01
1.741778254508972168e-01
1.643048226833343506e-01
1.545840650796890259e-01
1.540529578924179077e-01
1.643051356077194214e-01
1.780691295862197876e-01
2.195660024881362915e-01
2.148754000663757324e-01
2.014507949352264404e-01
1.898615360260009766e-01
1.886326223611831665e-01
1.977968513965606689e-01
2.094683200120925903e-01
2.147067636251449585e-01
2.112253457307815552e-01
2.051720321178436279e-01
2.057621628046035767e-01
2.173582464456558228e-01
2.349900901317596436e-01
2.476921528577804565e-01
2.472819983959197998e-01
2.350289523601531982e-01
2.206923365592956543e-01
2.149709910154342651e-01
2.211452275514602661e-01
2.325327396392822266e-01
2.379995137453079224e-01
2.311791777610778809e-01
2.153879851102828979e-01
2.004564106464385986e-01
1.947401911020278931e-01
1.983750164508819580e-01
2.034016251564025879e-01
2.006405889987945557e-01
1.877627372741699219e-01
1.713938415050506592e-01
1.616652756929397583e-01
1.640429049730300903e-01
1.744198799133300781e-01
1.820358037948608398e-01
1.779877096414566040e-01
1.624487638473510742e-01
1.445544064044952393e-01
1.352799832820892334e-01
1.389507055282592773e-01
1.498780250549316406e-01
1.571501642465591431e-01
1.536716818809509277e-01
1.417417526245117188e-01
1.307547539472579956e-01
1.293113678693771362e-01
1.378344744443893433e-01
1.480711102485656738e-01
1.499555855989456177e-01
1.402677446603775024e-01
1.254194825887680054e-01
1.162251085042953491e-01
1.190613806247711182e-01
1.299307197332382202e-01
1.368592232465744019e-01
1.285818219184875488e-01
1.028561368584632874e-01
6.757533550262451172e-02
3.496668860316276550e-02
1.401894167065620422e-02
7.139557972550392151e-03
1.376451738178730011e-02
3.715983033180236816e-02
8.747524023056030273e-02
1.768584251403808594e-01
3.099017441272735596e-01
4.757262468338012695e-01
6.487462520599365234e-01
7.994253039360046387e-01
9.080907702445983887e-01
9.717522859573364258e-01
9.993870258331298828e-01
1.000000000000000000e+00
9.727833867073059082e-01
9.071022868156433105e-01
7.930816411972045898e-01
6.349180340766906738e-01
4.550666511058807373e-01
2.861241102218627930e-01
1.554602682590484619e-01
7.300293445587158203e-02
3.035613708198070526e-02
1.087322738021612167e-02
1.926283352077007294e-03
0.000000000000000000e+00
7.058583665639162064e-03
2.295329608023166656e-02
4.166547581553459167e-02
5.482680723071098328e-02
5.850281566381454468e-02
5.664709210395812988e-02
5.779207497835159302e-02
6.794943660497665405e-02
8.537100255489349365e-02
1.013842970132827759e-01
1.071642413735389709e-01
1.011962443590164185e-01
9.077186882495880127e-02
8.640687912702560425e-02
9.366036206483840942e-02
1.084630861878395081e-01
1.202222108840942383e-01
1.203824505209922791e-01
1.094498559832572937e-01
9.648901969194412231e-02
9.203808009624481201e-02
9.978020191192626953e-02
1.137113347649574280e-01
1.231497153639793396e-01
1.216090321540832520e-01
1.119468435645103455e-01
1.037165448069572449e-01
1.052847355604171753e-01
1.167024001479148865e-01
1.295563131570816040e-01
1.339104175567626953e-01
1.267192661762237549e-01
1.144685447216033936e-01
1.079099476337432861e-01
1.133795082569122314e-01
1.275109797716140747e-01
1.398013234138488770e-01
1.411164999008178711e-01
1.311165839433670044e-01
1.181625798344612122e-01
1.125341802835464478e-01
1.183745712041854858e-01
1.304572820663452148e-01
1.386805921792984009e-01
1.366414725780487061e-01
1.266895830631256104e-01
1.176260709762573242e-01
1.174479573965072632e-01
1.266367286443710327e-01
1.377152800559997559e-01
1.413657963275909424e-01
1.343990564346313477e-01
1.223850473761558533e-01
1.150073856115341187e-01
1.182677969336509705e-01
1.293146312236785889e-01
1.386347413063049316e-01
1.378375887870788574e-01
1.266403049230575562e-01
1.130080521106719971e-01
1.066019237041473389e-01
1.110172718763351440e-01
1.208827495574951172e-01
1.262129098176956177e-01
1.208131238818168640e-01
1.074132248759269714e-01
9.557607769966125488e-02
9.415087103843688965e-02
1.041605770587921143e-01
1.176700517535209656e-01
1.238920092582702637e-01
1.180153936147689819e-01
1.050352901220321655e-01
9.562332183122634888e-02
9.789635241031646729e-02
1.109114289283752441e-01
1.256067603826522827e-01
1.323405206203460693e-01
1.287129968404769897e-01
1.210720539093017578e-01
1.188060194253921509e-01
1.264353096485137939e-01
1.395565420389175415e-01
1.484299749135971069e-01
1.462166309356689453e-01
1.349214315414428711e-01
1.238609254360198975e-01
1.223811656236648560e-01
1.321956664323806763e-01
1.458792090415954590e-01
1.527085453271865845e-01
1.473835259675979614e-01
1.341494619846343994e-01
1.231787800788879395e-01
1.225058063864707947e-01
1.317851990461349487e-01
1.426775455474853516e-01
1.457931101322174072e-01
1.385979056358337402e-01
1.272730231285095215e-01
1.215260401368141174e-01
1.266477704048156738e-01
1.390371322631835938e-01
1.489969491958618164e-01
1.488861292600631714e-01
1.396395415067672729e-01
1.298607736825942993e-01
1.289422512054443359e-01
1.394096761941909790e-01
1.545857191085815430e-01
1.638699173927307129e-01
1.612995713949203491e-01
1.503445953130722046e-01
1.408954858779907227e-01
1.415432840585708618e-01
1.527687013149261475e-01
2.167104929685592651e-01
2.221338301897048950e-01
2.146051675081253052e-01
2.011802494525909424e-01
1.936412006616592407e-01
1.989517211914062500e-01
2.133396118879318237e-01
2.252232730388641357e-01
2.247652560472488403e-01
2.120499759912490845e-01
1.970496773719787598e-01
1.920562684535980225e-01
2.021512091159820557e-01
2.213002890348434448e-01
2.373193800449371338e-01
2.419736534357070923e-01
2.373292595148086548e-01
2.332530915737152100e-01
2.389653027057647705e-01
2.550190389156341553e-01
2.724022865295410156e-01
2.797384262084960938e-01
2.727492153644561768e-01
2.577851414680480957e-01
2.465395331382751465e-01
2.469649612903594971e-01
2.567329108715057373e-01
2.650275230407714844e-01
2.613542377948760986e-01
2.441836297512054443e-01
2.221811264753341675e-01
2.073267400264739990e-01
2.055024951696395874e-01
2.118465304374694824e-01
2.149210721254348755e-01
2.065625190734863281e-01
1.887509077787399292e-01
1.718062609434127808e-01
1.659916341304779053e-01
1.728621274232864380e-01
1.838353127241134644e-01
1.871119141578674316e-01
1.775328665971755981e-01
1.605560034513473511e-01
1.474948227405548096e-01
1.463635712862014771e-01
1.556672602891921997e-01
1.664886325597763062e-01
1.703024357557296753e-01
1.661470830440521240e-01
1.604028046131134033e-01
1.595299392938613892e-01
1.631449759006500244e-01
1.643658131361007690e-01
1.565309464931488037e-01
1.400181502103805542e-01
1.227570846676826477e-01
1.133199632167816162e-01
1.122594177722930908e-01
1.104382947087287903e-01
9.647601097822189331e-02
6.693097949028015137e-02
3.165225312113761902e-02
9.495866484940052032e-03
1.850721053779125214e-02
6.685075163841247559e-02
1.508348435163497925e-01
2.604089379310607910e-01
3.865394890308380127e-01
5.236196517944335938e-01
6.657816171646118164e-01
8.018013834953308105e-01
9.138001799583435059e-01
9.831252098083496094e-01
1.000000000000000000e+00
9.691966772079467773e-01
9.056437015533447266e-01
8.234011530876159668e-01
7.272204756736755371e-01
6.135987639427185059e-01
4.799704253673553467e-01
3.342942893505096436e-01
1.963533908128738403e-01
8.873558789491653442e-02
2.456219494342803955e-02
4.157268558628857136e-04
0.000000000000000000e+00
4.950251430273056030e-03
5.251259077340364456e-03
2.087125554680824280e-03
3.040923271328210831e-03
1.360443979501724243e-02
3.131502866744995117e-02
4.763044416904449463e-02
5.538161098957061768e-02
5.510798096656799316e-02
5.484925583004951477e-02
6.341142952442169189e-02
8.267141878604888916e-02
1.051334887742996216e-01
1.191942095756530762e-01
1.185112670063972473e-01
1.073356792330741882e-01
9.727956354618072510e-02
9.847181290388107300e-02
1.116816624999046326e-01
1.277298629283905029e-01
1.351048201322555542e-01
1.296260207891464233e-01
1.176143065094947815e-01
1.105138510465621948e-01
1.157805323600769043e-01
1.305321604013442993e-01
1.439141035079956055e-01
1.459655314683914185e-01
1.359099298715591431e-01
1.225532963871955872e-01
1.172543764114379883e-01
1.248046979308128357e-01
1.395216733217239380e-01
1.499221175909042358e-01
1.483177840709686279e-01
1.372123807668685913e-01
1.270860880613327026e-01
1.278515160083770752e-01
1.406343728303909302e-01
1.565408259630203247e-01
1.637521833181381226e-01
1.573048681020736694e-01
1.430537104606628418e-01
1.328995078802108765e-01
1.353463828563690186e-01
1.487759649753570557e-01
1.627491712570190430e-01
1.666172146797180176e-01
1.581879705190658569e-01
1.452066749334335327e-01
1.389362961053848267e-01
1.450747996568679810e-01
1.591379493474960327e-01
1.700617372989654541e-01
1.693396270275115967e-01
1.579202264547348022e-01
1.451588571071624756e-01
1.412611752748489380e-01
1.489120125770568848e-01
1.609511077404022217e-01
1.662487983703613281e-01
1.590833663940429688e-01
1.439593285322189331e-01
1.317609697580337524e-01
1.310520470142364502e-01
1.410048753023147583e-01
1.519905328750610352e-01
1.537192910909652710e-01
1.438992023468017578e-01
1.302171200513839722e-01
1.239172741770744324e-01
1.306735724210739136e-01
1.455364525318145752e-01
1.567458361387252808e-01
1.553274393081665039e-01
1.425530612468719482e-01
1.289955824613571167e-01
1.261267364025115967e-01
1.370954215526580811e-01
1.541552990674972534e-01
1.649246811866760254e-01
1.624830067157745361e-01
1.507047116756439209e-01
1.405480802059173584e-01
1.412843912839889526e-01
1.528225094079971313e-01
1.659798473119735718e-01
1.700440645217895508e-01
1.617839485406875610e-01
1.480079442262649536e-01
1.398933827877044678e-01
1.440222263336181641e-01
1.567168980836868286e-01
1.668322831392288208e-01
1.649439185857772827e-01
1.513571441173553467e-01
1.359194517135620117e-01
1.302767395973205566e-01
1.386172622442245483e-01
1.542081534862518311e-01
1.647636890411376953e-01
1.625043153762817383e-01
1.502532809972763062e-01
1.387231498956680298e-01
1.380051970481872559e-01
1.492518335580825806e-01
1.637492477893829346e-01
1.701242923736572266e-01
1.640031188726425171e-01
1.515718549489974976e-01
1.443552970886230469e-01
1.498521119356155396e-01
1.651276051998138428e-01
2.110183387994766235e-01
2.098191380500793457e-01
1.984639018774032593e-01
1.869996339082717896e-01
1.843904852867126465e-01
1.913617104291915894e-01
2.003775686025619507e-01
2.026250660419464111e-01
1.962267011404037476e-01
1.881810128688812256e-01
1.885557323694229126e-01
2.021870762109756470e-01
2.239175885915756226e-01
2.418472617864608765e-01
2.464374154806137085e-01
2.379432767629623413e-01
2.257836610078811646e-01
2.211644053459167480e-01
2.281583696603775024e-01
2.404255419969558716e-01
2.462137639522552490e-01
2.380093187093734741e-01
2.187872529029846191e-01
1.994809806346893311e-01
1.903907507658004761e-01
1.931480169296264648e-01
1.996851861476898193e-01
1.992172747850418091e-01
1.874467730522155762e-01
1.700670719146728516e-01
1.578522175550460815e-01
1.579741686582565308e-01
1.680358797311782837e-01
1.778150498867034912e-01
1.776783764362335205e-01
1.663314849138259888e-01
1.516211032867431641e-01
1.440194398164749146e-01
1.481119394302368164e-01
1.587641686201095581e-01
1.651901602745056152e-01
1.600848436355590820e-01
1.458538025617599487e-01
1.325172334909439087e-01
1.295497119426727295e-01
1.379171609878540039e-01
1.491136401891708374e-01
1.520466655492782593e-01
1.425738632678985596e-01
1.271356195211410522e-01
1.174836233258247375e-01
1.214224398136138916e-01
1.360391378402709961e-01
1.494365334510803223e-01
1.494767516851425171e-01
1.324703097343444824e-01
1.053666919469833374e-01
8.001683652400970459e-02
6.499368697404861450e-02
6.143074110150337219e-02
6.651938706636428833e-02
8.150966465473175049e-02
1.163848042488098145e-01
1.858520805835723877e-01
2.989726364612579346e-01
4.496134519577026367e-01
6.152483224868774414e-01
7.663959264755249023e-01
8.809733390808105469e-01
9.529912471771240234e-01
9.895912408828735352e-01
1.000000000000000000e+00
9.845056533813476562e-01
9.327926635742187500e-01
8.332132101058959961e-01
6.862767338752746582e-01
5.111151337623596191e-01
3.390341997146606445e-01
1.987343281507492065e-01
1.032517775893211365e-01
4.779432341456413269e-02
1.848391070961952209e-02
3.903335891664028168e-03
0.000000000000000000e+00
7.094833999872207642e-03
2.311608567833900452e-02
4.066057875752449036e-02
5.084194988012313843e-02
5.051415413618087769e-02
4.525727778673171997e-02
4.521084949374198914e-02
5.728641897439956665e-02
7.919349521398544312e-02
1.005054637789726257e-01
1.103990897536277771e-01
1.062101349234580994e-01
9.546652436256408691e-02
8.997013419866561890e-02
9.665951132774353027e-02
1.122314929962158203e-01
1.259401738643646240e-01
1.285659968852996826e-01
1.199340224266052246e-01
1.089163944125175476e-01
1.059922054409980774e-01
1.147989481687545776e-01
1.292135864496231079e-01
1.383943855762481689e-01
1.358387023210525513e-01
1.247597709298133850e-01
1.151952520012855530e-01
1.159777119755744934e-01
1.274802535772323608e-01
1.411089897155761719e-01
1.463612765073776245e-01
1.394976228475570679e-01
1.265869438648223877e-01
1.185664236545562744e-01
1.225969567894935608e-01
1.361073255538940430e-01
1.488437205553054810e-01
1.512609273195266724e-01
1.424416005611419678e-01
1.305311471223831177e-01
1.260000169277191162e-01
1.332017630338668823e-01
1.468376964330673218e-01
1.562691330909729004e-01
1.546193510293960571e-01
1.445108950138092041e-01
1.356336921453475952e-01
1.368400901556015015e-01
1.487874835729598999e-01
1.632183045148849487e-01
1.695980280637741089e-01
1.638264805078506470e-01
1.515522748231887817e-01
1.435062438249588013e-01
1.468689143657684326e-01
1.594670116901397705e-01
1.713779419660568237e-01
1.730334460735321045e-01
1.629263013601303101e-01
1.486109048128128052e-01
1.404563337564468384e-01
1.433501094579696655e-01
1.525819301605224609e-01
1.577876359224319458e-01
1.515877395868301392e-01
1.359726041555404663e-01
1.207483708858489990e-01
1.158918812870979309e-01
1.236978992819786072e-01
1.367763280868530273e-01
1.439936161041259766e-01
1.396907120943069458e-01
1.280781328678131104e-01
1.194285079836845398e-01
1.216807514429092407e-01
1.338078230619430542e-01
1.464968174695968628e-01
1.498900651931762695e-01
1.418988108634948730e-01
1.297311931848526001e-01
1.239464059472084045e-01
1.298986077308654785e-01
1.433762758970260620e-01
1.539429873228073120e-01
1.533781290054321289e-01
1.424373388290405273e-01
1.301477700471878052e-01
1.267236173152923584e-01
1.354988068342208862e-01
1.501282602548599243e-01
1.595508754253387451e-01
1.568557322025299072e-01
1.447113305330276489e-01
1.329597979784011841e-01
1.306071728467941284e-01
1.384350955486297607e-01
1.484341770410537720e-01
1.507508456707000732e-01
1.423085182905197144e-01
1.293818056583404541e-01
1.222536265850067139e-01
1.267353892326354980e-01
1.392214894294738770e-01
1.492926627397537231e-01
1.484062224626541138e-01
1.370658725500106812e-01
1.245120838284492493e-01
1.215164437890052795e-01
1.318696439266204834e-01
1.492529362440109253e-01
1.621503829956054688e-01
1.630312651395797729e-01
1.541128605604171753e-01
1.450298130512237549e-01
1.450039893388748169e-01
1.552425771951675415e-01
2.387678921222686768e-01
2.240203469991683960e-01
2.150125354528427124e-01
2.193745225667953491e-01
2.345133572816848755e-01
2.496099919080734253e-01
2.544763088226318359e-01
2.476237565279006958e-01
2.370893955230712891e-01
2.333815693855285645e-01
2.406688183546066284e-01
2.530927658081054688e-01
2.598647177219390869e-01
2.549600303173065186e-01
2.428771108388900757e-01
2.352289408445358276e-01
2.416371703147888184e-01
2.616452872753143311e-01
2.845449745655059814e-01
2.973455488681793213e-01
2.947653532028198242e-01
2.828274071216583252e-01
2.733102142810821533e-01
2.745456397533416748e-01
2.847330272197723389e-01
2.937322854995727539e-01
2.915505170822143555e-01
2.767211496829986572e-01
2.574088871479034424e-01
2.448357790708541870e-01
2.443305850028991699e-01
2.510177493095397949e-01
2.538090348243713379e-01
2.449557930231094360e-01
2.267195284366607666e-01
2.096916288137435913e-01
2.042782604694366455e-01
2.120124399662017822e-01
2.240831404924392700e-01
2.281462997198104858e-01
2.185827195644378662e-01
2.009542137384414673e-01
1.873510181903839111e-01
1.869094967842102051e-01
1.983677148818969727e-01
2.110024094581604004e-01
2.133506089448928833e-01
2.024591416120529175e-01
1.859102696180343628e-01
1.753070056438446045e-01
1.771098822355270386e-01
1.873304247856140137e-01
1.950822323560714722e-01
1.919338554143905640e-01
1.790779680013656616e-01
1.662254035472869873e-01
1.634718030691146851e-01
1.726669520139694214e-01
1.850043833255767822e-01
1.874801069498062134e-01
1.729092597961425781e-01
1.454082280397415161e-01
1.169995516538619995e-01
9.894330054521560669e-02
9.453019499778747559e-02
9.989402443170547485e-02
1.118176728487014771e-01
1.358320862054824829e-01
1.862486898899078369e-01
2.769859433174133301e-01
4.100717306137084961e-01
5.695676207542419434e-01
7.267635464668273926e-01
8.541812896728515625e-01
9.385846257209777832e-01
9.833317995071411133e-01
1.000000000000000000e+00
9.961112737655639648e-01
9.680612683296203613e-01
9.047636389732360840e-01
7.995898723602294922e-01
6.603276729583740234e-01
5.084329247474670410e-01
3.683084547519683838e-01
2.547684907913208008e-01
1.686071008443832397e-01
1.021940782666206360e-01
4.995677992701530457e-02
1.391458325088024139e-02
0.000000000000000000e+00
9.473220445215702057e-03
3.332836180925369263e-02
5.597826465964317322e-02
6.531419605016708374e-02
6.086184456944465637e-02
5.324663594365119934e-02
5.563303828239440918e-02
7.347454875707626343e-02
1.002113372087478638e-01
1.222738847136497498e-01
1.299803256988525391e-01
1.247883364558219910e-01
1.174103692173957825e-01
1.190306097269058228e-01
1.322460174560546875e-01
1.492044925689697266e-01
1.584155112504959106e-01
1.547677069902420044e-01
1.439782977104187012e-01
1.378615647554397583e-01
1.447233557701110840e-01
1.621060669422149658e-01
1.785963326692581177e-01
1.830758899450302124e-01
1.738001406192779541e-01
1.597106009721755981e-01
1.531062871217727661e-01
1.598213613033294678e-01
1.746695786714553833e-01
1.857651323080062866e-01
1.845722794532775879e-01
1.728422641754150391e-01
1.608474552631378174e-01
1.590217202901840210e-01
1.694817692041397095e-01
1.842622905969619751e-01
1.918229013681411743e-01
1.868377923965454102e-01
1.745933443307876587e-01
1.664835810661315918e-01
1.708569228649139404e-01
1.860936135053634644e-01
2.017069458961486816e-01
2.069920897483825684e-01
1.997067630290985107e-01
1.878045648336410522e-01
1.827386915683746338e-01
1.901370733976364136e-01
2.050493061542510986e-01
2.158927917480468750e-01
2.140846699476242065e-01
2.014203220605850220e-01
1.885707378387451172e-01
1.865846812725067139e-01
1.978332251310348511e-01
2.139144092798233032e-01
2.224252223968505859e-01
2.170373201370239258e-01
2.025587558746337891e-01
1.905436962842941284e-01
1.900395601987838745e-01
2.000652402639389038e-01
2.106158286333084106e-01
2.110437452793121338e-01
1.988938450813293457e-01
1.818247735500335693e-01
1.715142279863357544e-01
1.745579391717910767e-01
1.873190850019454956e-01
1.987525522708892822e-01
1.992915868759155273e-01
1.884899586439132690e-01
1.747911721467971802e-01
1.687452644109725952e-01
1.743041127920150757e-01
1.855633109807968140e-01
1.915715336799621582e-01
1.857136785984039307e-01
1.713840812444686890e-01
1.592467427253723145e-01
1.588388979434967041e-01
1.704932004213333130e-01
1.847788244485855103e-01
1.900927573442459106e-01
1.820623725652694702e-01
1.671686321496963501e-01
1.573043018579483032e-01
1.603323221206665039e-01
1.736415773630142212e-01
1.861264109611511230e-01
1.873403787612915039e-01
1.761253178119659424e-01
1.611942499876022339e-01
1.538970470428466797e-01
1.590663790702819824e-01
1.711513847112655640e-01
1.788307875394821167e-01
1.747266203165054321e-01
1.616305410861968994e-01
1.500036269426345825e-01
1.495174467563629150e-01
1.607811599969863892e-01
1.746941804885864258e-01
1.797363311052322388e-01
1.715772002935409546e-01
1.566845029592514038e-01
1.473014652729034424e-01
1.518485397100448608e-01
1.679679304361343384e-01
1.841921657323837280e-01
1.076862737536430359e-01
1.207788437604904175e-01
1.243017539381980896e-01
1.163542121648788452e-01
1.042166426777839661e-01
9.861860424280166626e-02
1.052507087588310242e-01
1.200719699263572693e-01
1.322819143533706665e-01
1.330371350049972534e-01
1.224699988961219788e-01
1.092969328165054321e-01
1.037008091807365417e-01
1.091030389070510864e-01
1.194158419966697693e-01
1.242554709315299988e-01
1.178474873304367065e-01
1.038468256592750549e-01
9.218358248472213745e-02
9.099650382995605469e-02
9.986835718154907227e-02
1.100033298134803772e-01
1.114744991064071655e-01
1.015350148081779480e-01
8.678358048200607300e-02
7.814729213714599609e-02
8.196176588535308838e-02
9.556397795677185059e-02
1.092805489897727966e-01
1.142564937472343445e-01
1.094684079289436340e-01
1.021647453308105469e-01
1.021852642297744751e-01
1.147271618247032166e-01
1.359724700450897217e-01
1.549667418003082275e-01
1.615377515554428101e-01
1.536761075258255005e-01
1.387818306684494019e-01
1.282477676868438721e-01
1.293702721595764160e-01
1.392085999250411987e-01
1.476185321807861328e-01
1.456060856580734253e-01
1.329830586910247803e-01
1.184691041707992554e-01
1.124929711222648621e-01
1.185398846864700317e-01
1.297454982995986938e-01
1.337570548057556152e-01
1.221781149506568909e-01
9.700141847133636475e-02
6.883340328931808472e-02
4.962822422385215759e-02
4.564132913947105408e-02
5.640793591737747192e-02
8.041457086801528931e-02
1.218733564019203186e-01
1.912690401077270508e-01
2.983052134513854980e-01
4.423135221004486084e-01
6.067745089530944824e-01
7.639385461807250977e-01
8.875203728675842285e-01
9.646293520927429199e-01
9.984096884727478027e-01
1.000000000000000000e+00
9.762749075889587402e-01
9.229196906089782715e-01
8.288452029228210449e-01
6.893340349197387695e-01
5.169990062713623047e-01
3.405403792858123779e-01
1.917626112699508667e-01
9.008157998323440552e-02
3.506448119878768921e-02
1.162967924028635025e-02
2.889684168621897697e-03
0.000000000000000000e+00
2.635502722114324570e-03
1.283028069883584976e-02
2.843031287193298340e-02
4.265047982335090637e-02
4.919493943452835083e-02
4.786724597215652466e-02
4.526625946164131165e-02
4.961120337247848511e-02
6.410448253154754639e-02
8.362046629190444946e-02
9.822461009025573730e-02
1.008432507514953613e-01
9.310137480497360229e-02
8.403259515762329102e-02
8.322662860155105591e-02
9.317533671855926514e-02
1.072448715567588806e-01
1.150751933455467224e-01
1.112376525998115540e-01
9.970818459987640381e-02
9.057275950908660889e-02
9.217085689306259155e-02
1.042988821864128113e-01
1.184221804141998291e-01
1.246508955955505371e-01
1.198179498314857483e-01
1.097691878676414490e-01
1.044083163142204285e-01
1.096174493432044983e-01
1.224340498447418213e-01
1.332844793796539307e-01
1.339530199766159058e-01
1.244282126426696777e-01
1.128153949975967407e-01
1.088087707757949829e-01
1.158751174807548523e-01
1.283123493194580078e-01
1.359681785106658936e-01
1.329547464847564697e-01
1.226565763354301453e-01
1.145929098129272461e-01
1.165988445281982422e-01
1.280963420867919922e-01
1.404357552528381348e-01
1.440040022134780884e-01
1.362856626510620117e-01
1.239160299301147461e-01
1.172664314508438110e-01
1.223039329051971436e-01
1.356565803289413452e-01
1.473807394504547119e-01
1.489230096340179443e-01
1.400368362665176392e-01
1.286793053150177002e-01
1.245204657316207886e-01
1.310655623674392700e-01
1.427526623010635376e-01
1.494415551424026489e-01
1.449334025382995605e-01
1.319903433322906494e-01
1.199935525655746460e-01
1.174534857273101807e-01
1.251590996980667114e-01
1.352888196706771851e-01
1.378244310617446899e-01
1.289982348680496216e-01
1.144432350993156433e-01
1.046360954642295837e-01
1.066207140684127808e-01
1.182522997260093689e-01
1.298671811819076538e-01
1.321731060743331909e-01
1.238026171922683716e-01
1.120854541659355164e-01
1.067527309060096741e-01
1.121678501367568970e-01
1.237383559346199036e-01
1.318575292825698853e-01
1.298716366291046143e-01
1.197031065821647644e-01
1.100787296891212463e-01
1.097068414092063904e-01
1.200958341360092163e-01
1.341780871152877808e-01
1.419097930192947388e-01
1.385529339313507080e-01
1.284513771533966064e-01
1.213497221469879150e-01
1.243859007954597473e-01
1.358870565891265869e-01
1.465439051389694214e-01
1.470704078674316406e-01
1.363147795200347900e-01
1.223438605666160583e-01
1.159266531467437744e-01
1.218900531530380249e-01
1.350925415754318237e-01
1.443965733051300049e-01
1.420149356126785278e-01
1.298240870237350464e-01
1.174679622054100037e-01
1.145606264472007751e-01
1.229956969618797302e-01
1.355301141738891602e-01
1.419315785169601440e-01
1.374633610248565674e-01
1.266903877258300781e-01
1.194915547966957092e-01
1.231943666934967041e-01
1.364208757877349854e-01
1.502080708742141724e-01
1.552058011293411255e-01
1.492301523685455322e-01
1.389633268117904663e-01
1.343621313571929932e-01
1.406907439231872559e-01
1.541590243577957153e-01
1.647746711969375610e-01
1.645613759756088257e-01
1.541265696287155151e-01
1.421092599630355835e-01
