2.153305858373641968e-01
2.078761160373687744e-01
2.005394399166107178e-01
2.007517367601394653e-01
2.101731598377227783e-01
2.229027152061462402e-01
2.298548519611358643e-01
2.260326594114303589e-01
2.145619392395019531e-01
2.042085230350494385e-01
2.029557675123214722e-01
2.119310796260833740e-01
2.249472588300704956e-01
2.335988432168960571e-01
2.341660261154174805e-01
2.302135825157165527e-01
2.290409505367279053e-01
2.355012595653533936e-01
2.475129067897796631e-01
2.574945390224456787e-01
2.585543990135192871e-01
2.501439154148101807e-01
2.385806143283843994e-01
2.318949401378631592e-01
2.334426194429397583e-01
2.391721308231353760e-01
2.408979982137680054e-01
2.332362532615661621e-01
2.181230187416076660e-01
2.032361626625061035e-01
1.959914714097976685e-01
1.976559162139892578e-01
2.025551944971084595e-01
2.028600722551345825e-01
1.952299475669860840e-01
1.833191961050033569e-01
1.744478791952133179e-01
1.737912446260452271e-01
1.798665672540664673e-01
1.857033222913742065e-01
1.844606697559356689e-01
1.750831604003906250e-01
1.631599366664886475e-01
1.563230901956558228e-01
1.581836640834808350e-01
1.651788204908370972e-01
1.692919433116912842e-01
1.647396683692932129e-01
1.529302448034286499e-01
1.413249671459197998e-01
1.375389844179153442e-01
1.431539505720138550e-01
1.523762792348861694e-01
1.566341966390609741e-01
1.516389250755310059e-01
1.403768062591552734e-01
1.297705769538879395e-01
1.243391335010528564e-01
1.213884055614471436e-01
1.125362366437911987e-01
9.047501534223556519e-02
5.614000931382179260e-02
2.051813155412673950e-02
0.000000000000000000e+00
8.652627468109130859e-03
5.246810987591743469e-02
1.290538460016250610e-01
2.322125732898712158e-01
3.562370240688323975e-01
4.959266483783721924e-01
6.432046890258789062e-01
7.841097712516784668e-01
9.001581668853759766e-01
9.746598601341247559e-01
1.000000000000000000e+00
9.796887040138244629e-01
9.234799742698669434e-01
8.394572734832763672e-01
7.300316691398620605e-01
5.956500768661499023e-01
4.427922368049621582e-01
2.887666523456573486e-01
1.578376889228820801e-01
6.984591484069824219e-02
2.996759861707687378e-02
2.640607766807079315e-02
3.800854086875915527e-02
4.659217968583106995e-02
4.561360180377960205e-02
3.998661786317825317e-02
3.908384963870048523e-02
4.837279021739959717e-02
6.493951380252838135e-02
8.024028688669204712e-02
8.740783482789993286e-02
8.652212470769882202e-02
8.392286300659179688e-02
8.664897084236145020e-02
9.612528979778289795e-02
1.070184484124183655e-01
1.119144633412361145e-01
1.080829277634620667e-01
9.998041391372680664e-02
9.570944309234619141e-02
1.006072387099266052e-01
1.127124875783920288e-01
1.240642219781875610e-01
1.270993649959564209e-01
1.208022385835647583e-01
1.114741340279579163e-01
1.077197417616844177e-01
1.137013062834739685e-01
1.256335675716400146e-01
1.347097605466842651e-01
1.344643831253051758e-01
1.260418593883514404e-01
1.169738173484802246e-01
1.150297150015830994e-01
1.219147890806198120e-01
1.319752037525177002e-01
1.370275914669036865e-01
1.333298683166503906e-01
1.247398480772972107e-01
1.193940117955207825e-01
1.231774762272834778e-01
1.347576826810836792e-01
1.463656425476074219e-01
1.499532610177993774e-01
1.437359601259231567e-01
1.336298584938049316e-01
1.285138279199600220e-01
1.332380324602127075e-01
1.447464376688003540e-01
1.546394973993301392e-01
1.562115252017974854e-01
1.498875468969345093e-01
1.423645317554473877e-01
1.410875916481018066e-01
1.480823010206222534e-01
1.581146717071533203e-01
1.629811674356460571e-01
1.584192514419555664e-01
1.477332115173339844e-01
1.390844434499740601e-01
1.391564011573791504e-01
1.476999819278717041e-01
1.575114428997039795e-01
1.601181179285049438e-01
1.527437567710876465e-01
1.404179036617279053e-01
1.317448019981384277e-01
1.320478916168212891e-01
1.391599625349044800e-01
1.453282982110977173e-01
1.438723057508468628e-01
1.348785907030105591e-01
1.249392479658126831e-01
1.217995136976242065e-01
1.279595494270324707e-01
1.385592520236968994e-01
1.452336460351943970e-01
1.429817080497741699e-01
1.342026740312576294e-01
1.266499757766723633e-01
1.273346543312072754e-01
1.368430256843566895e-01
1.487591266632080078e-01
1.547868251800537109e-01
1.515045166015625000e-01
1.429919451475143433e-01
1.372738629579544067e-01
1.398953795433044434e-01
1.493378728628158569e-01
1.581660062074661255e-01
1.592499166727066040e-01
1.517318040132522583e-01
1.417408287525177002e-01
1.372753530740737915e-01
1.416980922222137451e-01
1.509023159742355347e-01
1.565290093421936035e-01
1.530835032463073730e-01
1.425884068012237549e-01
1.329157948493957520e-01
1.315575689077377319e-01
1.394357532262802124e-01
1.500037163496017456e-01
1.544381827116012573e-01
1.490297317504882812e-01
1.380968093872070312e-01
1.304212808609008789e-01
1.324244290590286255e-01
1.429888159036636353e-01
1.543930768966674805e-01
1.586818546056747437e-01
1.541316658258438110e-01
1.463681608438491821e-01
1.434684693813323975e-01
1.494030058383941650e-01
1.606397628784179688e-01
2.001584768295288086e-01
1.933215260505676270e-01
1.966458112001419067e-01
2.084238380193710327e-01
2.197614610195159912e-01
2.218371182680130005e-01
2.134056836366653442e-01
2.017707079648971558e-01
1.970145106315612793e-01
2.039969712495803833e-01
2.182887792587280273e-01
2.296176105737686157e-01
2.303198724985122681e-01
2.214735150337219238e-01
2.116048932075500488e-01
2.096374928951263428e-01
2.174801975488662720e-01
2.287436574697494507e-01
2.346516549587249756e-01
2.317020595073699951e-01
2.247401475906372070e-01
2.224717140197753906e-01
2.292944341897964478e-01
2.416205853223800659e-01
2.513668835163116455e-01
2.530924677848815918e-01
2.486554235219955444e-01
2.452448606491088867e-01
2.482115030288696289e-01
2.557559907436370850e-01
2.607457339763641357e-01
2.571852803230285645e-01
2.457847297191619873e-01
2.338560819625854492e-01
2.291647344827651978e-01
2.333763241767883301e-01
2.402018457651138306e-01
2.402101010084152222e-01
2.288651019334793091e-01
2.104676812887191772e-01
1.949392110109329224e-01
1.902592778205871582e-01
1.962356418371200562e-01
2.044429928064346313e-01
2.050282061100006104e-01
1.946887820959091187e-01
1.791248023509979248e-01
1.680984050035476685e-01
1.677089780569076538e-01
1.754360496997833252e-01
1.823225468397140503e-01
1.806120872497558594e-01
1.700745970010757446e-01
1.580415666103363037e-01
1.531140208244323730e-01
1.580709218978881836e-01
1.673678606748580933e-01
1.717325150966644287e-01
1.660210043191909790e-01
1.535792052745819092e-01
1.435237675905227661e-01
1.433228999376296997e-01
1.521815508604049683e-01
1.608328372240066528e-01
1.579552888870239258e-01
1.385867297649383545e-01
1.073999106884002686e-01
7.467484474182128906e-02
4.938178509473800659e-02
3.437068685889244080e-02
2.865811251103878021e-02
3.427648916840553284e-02
6.127105653285980225e-02
1.246181204915046692e-01
2.347435653209686279e-01
3.874630630016326904e-01
5.610641837120056152e-01
7.247139811515808105e-01
8.531581163406372070e-01
9.371017813682556152e-01
9.824118614196777344e-01
1.000000000000000000e+00
9.942053556442260742e-01
9.583019018173217773e-01
8.806682825088500977e-01
7.574445009231567383e-01
6.007485389709472656e-01
4.357710778713226318e-01
2.890421748161315918e-01
1.764409244060516357e-01
9.892735630273818970e-02
4.804511368274688721e-02
1.581246964633464813e-02
0.000000000000000000e+00
1.578312134370207787e-03
1.805859059095382690e-02
4.016040638089179993e-02
5.602753162384033203e-02
5.928239598870277405e-02
5.362974852323532104e-02
4.983466491103172302e-02
5.748651549220085144e-02
7.744467258453369141e-02
1.009330675005912781e-01
1.163151562213897705e-01
1.182435378432273865e-01
1.114146709442138672e-01
1.063038259744644165e-01
1.108301654458045959e-01
1.242221817374229431e-01
1.378647983074188232e-01
1.425500065088272095e-01
1.363255083560943604e-01
1.260145455598831177e-01
1.216771230101585388e-01
1.286662667989730835e-01
1.432280093431472778e-01
1.555372923612594604e-01
1.577552855014801025e-01
1.502828747034072876e-01
1.410414576530456543e-01
1.390447169542312622e-01
1.469468176364898682e-01
1.588320434093475342e-01
1.651864200830459595e-01
1.609843224287033081e-01
1.499524861574172974e-01
1.415416151285171509e-01
1.434480249881744385e-01
1.554687470197677612e-01
1.694517731666564941e-01
1.757799685001373291e-01
1.711075901985168457e-01
1.608966290950775146e-01
1.547559499740600586e-01
1.588257253170013428e-01
1.707728058099746704e-01
1.816809326410293579e-01
1.835488528013229370e-01
1.760172098875045776e-01
1.665735244750976562e-01
1.644331961870193481e-01
1.727883666753768921e-01
1.859005987644195557e-01
1.935394406318664551e-01
1.895737200975418091e-01
1.769973039627075195e-01
1.654424667358398438e-01
1.636912226676940918e-01
1.725983917713165283e-01
1.843808144330978394e-01
1.888765692710876465e-01
1.818803995847702026e-01
1.683595627546310425e-01
1.583181917667388916e-01
1.589606851339340210e-01
1.689055860042572021e-01
1.792949140071868896e-01
1.812760233879089355e-01
1.733241826295852661e-01
1.623487621545791626e-01
1.576213836669921875e-01
1.632262170314788818e-01
1.745098978281021118e-01
1.819408535957336426e-01
1.792033612728118896e-01
1.685860902070999146e-01
1.590524166822433472e-01
1.590077877044677734e-01
1.693045049905776978e-01
1.824220269918441772e-01
1.885222792625427246e-01
1.835367381572723389e-01
1.724692136049270630e-01
1.652233153581619263e-01
1.688460111618041992e-01
1.817030757665634155e-01
1.946620643138885498e-01
1.983402818441390991e-01
1.907455474138259888e-01
1.786329150199890137e-01
1.717804968357086182e-01
1.753019541501998901e-01
1.854419261217117310e-01
1.926299929618835449e-01
1.897020041942596436e-01
1.780721247196197510e-01
1.665675491094589233e-01
1.643625497817993164e-01
1.733841150999069214e-01
1.866522282361984253e-01
1.937875896692276001e-01
1.893614232540130615e-01
1.770793795585632324e-01
1.666536629199981689e-01
1.661689728498458862e-01
1.755805015563964844e-01
1.869706809520721436e-01
1.911332309246063232e-01
1.852561682462692261e-01
1.496425271034240723e-01
1.560642868280410767e-01
1.666534096002578735e-01
1.738512068986892700e-01
1.742545813322067261e-01
1.711723804473876953e-01
1.714028120040893555e-01
1.794152259826660156e-01
1.928980052471160889e-01
2.040821909904479980e-01
2.057504653930664062e-01
1.972555369138717651e-01
1.850196421146392822e-01
1.777293980121612549e-01
1.795004159212112427e-01
1.865458488464355469e-01
1.900831609964370728e-01
1.836803108453750610e-01
1.685250252485275269e-01
1.523702293634414673e-01
1.435751169919967651e-01
1.445189565420150757e-01
1.499754041433334351e-01
1.515575796365737915e-01
1.448872238397598267e-01
1.330097615718841553e-01
1.236000657081604004e-01
1.226035803556442261e-01
1.292156875133514404e-01
1.363534182310104370e-01
1.365700811147689819e-01
1.283464431762695312e-01
1.172591000795364380e-01
1.114094108343124390e-01
1.148031428456306458e-01
1.238954141736030579e-01
1.303248852491378784e-01
1.277332156896591187e-01
1.170534789562225342e-01
1.056651845574378967e-01
1.014013066887855530e-01
1.063135191798210144e-01
1.150868386030197144e-01
1.194797754287719727e-01
1.152422279119491577e-01
1.055692583322525024e-01
9.796672314405441284e-02
9.752582758665084839e-02
1.018915325403213501e-01
1.021808236837387085e-01
8.969195187091827393e-02
6.332796812057495117e-02
3.142719343304634094e-02
7.419002708047628403e-03
2.904265653342008591e-03
2.301776036620140076e-02
6.769775599241256714e-02
1.363219469785690308e-01
2.309687733650207520e-01
3.541026711463928223e-01
5.024579167366027832e-01
6.621221899986267090e-01
8.100519776344299316e-01
9.225997924804687500e-01
9.858389496803283691e-01
1.000000000000000000e+00
9.747036099433898926e-01
9.192968010902404785e-01
8.355591297149658203e-01
7.194016575813293457e-01
5.705741643905639648e-01
4.020356833934783936e-01
2.396443486213684082e-01
1.113572120666503906e-01
3.331092000007629395e-02
2.311459509655833244e-03
0.000000000000000000e+00
5.441772285848855972e-03
6.793515291064977646e-03
4.367216490209102631e-03
5.004505626857280731e-03
1.359489839524030685e-02
2.828538417816162109e-02
4.207500815391540527e-02
4.905886203050613403e-02
4.946844279766082764e-02
4.907868430018424988e-02
5.408182740211486816e-02
6.538569182157516479e-02
7.744970172643661499e-02
8.290766924619674683e-02
7.916518300771713257e-02
7.095940411090850830e-02
6.661821156740188599e-02
7.141558080911636353e-02
8.306562900543212891e-02
9.352310001850128174e-02
9.559595584869384766e-02
8.887385576963424683e-02
7.996346056461334229e-02
7.712303847074508667e-02
8.377917110919952393e-02
9.572335332632064819e-02
1.044229865074157715e-01
1.039239913225173950e-01
9.564558416604995728e-02
8.701872825622558594e-02
8.561024814844131470e-02
9.308114647865295410e-02
1.038928180932998657e-01
1.098670288920402527e-01
1.070185974240303040e-01
9.872203320264816284e-02
9.280879795551300049e-02
9.523161500692367554e-02
1.050035357475280762e-01
1.148768290877342224e-01
1.172846704721450806e-01
1.106917858123779297e-01
1.008464843034744263e-01
9.612521529197692871e-02
1.008507162332534790e-01
1.116619408130645752e-01
1.200845390558242798e-01
1.195747926831245422e-01
1.109927222132682800e-01
1.017741188406944275e-01
9.993487596511840820e-02
1.075909733772277832e-01
1.190798804163932800e-01
1.254352182149887085e-01
1.217376738786697388e-01
1.111219376325607300e-01
1.021374017000198364e-01
1.019829213619232178e-01
1.106739267706871033e-01
1.208894699811935425e-01
1.238409429788589478e-01
1.164010614156723022e-01
1.033886745572090149e-01
9.359724074602127075e-02
9.280244261026382446e-02
9.926597028970718384e-02
1.054786294698715210e-01
1.046743020415306091e-01
9.664116054773330688e-02
8.776056766510009766e-02
8.565987646579742432e-02
9.284844249486923218e-02
1.043132916092872620e-01
1.114523857831954956e-01
1.091304868459701538e-01
9.998435527086257935e-02
9.225321561098098755e-02
9.327935427427291870e-02
1.034861207008361816e-01
1.158556118607521057e-01
1.215659454464912415e-01
1.171878352761268616e-01
1.073576658964157104e-01
1.009306088089942932e-01
1.039811819791793823e-01
1.148896887898445129e-01
1.257104426622390747e-01
1.287207752466201782e-01
1.228098124265670776e-01
1.140735596418380737e-01
1.106128022074699402e-01
1.159338355064392090e-01
1.259370893239974976e-01
1.321632266044616699e-01
1.290604472160339355e-01
1.186141744256019592e-01
1.087647825479507446e-01
1.071183010935783386e-01
1.148538291454315186e-01
1.256691366434097290e-01
1.307517141103744507e-01
1.259077489376068115e-01
1.148406714200973511e-01
1.061057820916175842e-01
1.065326109528541565e-01
1.159007027745246887e-01
1.272215098142623901e-01
1.324638575315475464e-01
1.291236877441406250e-01
1.219920143485069275e-01
1.188592836260795593e-01
1.240910440683364868e-01
1.347892433404922485e-01
1.431679576635360718e-01
1.431853622198104858e-01
1.358135640621185303e-01
1.282508224248886108e-01
1.280763745307922363e-01
1.370324641466140747e-01
1.494270712137222290e-01
1.566073149442672729e-01
1.539483219385147095e-01
1.444773375988006592e-01
2.167831808328628540e-01
2.252849191427230835e-01
2.361223250627517700e-01
2.401816695928573608e-01
2.337571233510971069e-01
2.216946780681610107e-01
2.134690731763839722e-01
2.158556580543518066e-01
2.272310853004455566e-01
2.388437688350677490e-01
2.418898940086364746e-01
2.346637547016143799e-01
2.236121594905853271e-01
2.177938520908355713e-01
2.214937359094619751e-01
2.308831065893173218e-01
2.376175522804260254e-01
2.363757193088531494e-01
2.297079712152481079e-01
2.259047329425811768e-01
2.322206497192382812e-01
2.485301494598388672e-01
2.667151987552642822e-01
2.765320837497711182e-01
2.736188769340515137e-01
2.627198398113250732e-01
2.537693679332733154e-01
2.542973756790161133e-01
2.632936835289001465e-01
2.720815539360046387e-01
2.714379727840423584e-01
2.593468427658081055e-01
2.425336390733718872e-01
2.308661341667175293e-01
2.293989062309265137e-01
2.343687862157821655e-01
2.364646494388580322e-01
2.289374470710754395e-01
2.134383618831634521e-01
1.985183507204055786e-01
1.926817148923873901e-01
1.975229531526565552e-01
2.064014673233032227e-01
2.097537517547607422e-01
2.028183490037918091e-01
1.892286092042922974e-01
1.778295934200286865e-01
1.757603883743286133e-01
1.826738864183425903e-01
1.909989565610885620e-01
1.919561624526977539e-01
1.828717887401580811e-01
1.692555546760559082e-01
1.602090299129486084e-01
1.611516475677490234e-01
1.691515296697616577e-01
1.753018051385879517e-01
1.720847785472869873e-01
1.599707454442977905e-01
1.470559686422348022e-01
1.426402181386947632e-01
1.495063751935958862e-01
1.612076461315155029e-01
1.664380580186843872e-01
1.576085835695266724e-01
1.359874010086059570e-01
1.100529730319976807e-01
8.903411030769348145e-02
7.695503532886505127e-02
7.234886288642883301e-02
7.398156076669692993e-02
8.757435530424118042e-02
1.265024840831756592e-01
2.047881186008453369e-01
3.271044790744781494e-01
4.819099903106689453e-01
6.439869403839111328e-01
7.859689593315124512e-01
8.907803297042846680e-01
9.565122127532958984e-01
9.907448887825012207e-01
1.000000000000000000e+00
9.825878143310546875e-01
9.300441741943359375e-01
8.360734581947326660e-01
7.056158185005187988e-01
5.559643507003784180e-01
4.094703197479248047e-01
2.831822037696838379e-01
1.834055483341217041e-01
1.076395660638809204e-01
5.177534744143486023e-02
1.521174982190132141e-02
0.000000000000000000e+00
5.650117527693510056e-03
2.463370375335216522e-02
4.413561150431632996e-02
5.369995906949043274e-02
5.208830907940864563e-02
4.741084948182106018e-02
5.047733336687088013e-02
6.628972291946411133e-02
9.006974101066589355e-02
1.108803525567054749e-01
1.202284768223762512e-01
1.185572519898414612e-01
1.142165139317512512e-01
1.164145469665527344e-01
1.278335899114608765e-01
1.425565481185913086e-01
1.512293666601181030e-01
1.490919142961502075e-01
1.399724036455154419e-01
1.330782473087310791e-01
1.357491165399551392e-01
1.474637985229492188e-01
1.602414399385452271e-01
1.652547717094421387e-01
1.599566489458084106e-01
1.499781906604766846e-01
1.446347534656524658e-01
1.495303064584732056e-01
1.620837450027465820e-01
1.735991835594177246e-01
1.764132976531982422e-01
1.702448576688766479e-01
1.621407717466354370e-01
1.606323122978210449e-01
1.685542762279510498e-01
1.805673390626907349e-01
1.874110847711563110e-01
1.839576512575149536e-01
1.736653745174407959e-01
1.657476425170898438e-01
1.678631901741027832e-01
1.797934174537658691e-01
1.932879537343978882e-01
1.988053470849990845e-01
1.933358162641525269e-01
1.827368587255477905e-01
1.768557578325271606e-01
1.816221475601196289e-01
1.942039281129837036e-01
2.052623033523559570e-01
2.066058069467544556e-01
1.978807151317596436e-01
1.867522448301315308e-01
1.825997233390808105e-01
1.890590637922286987e-01
2.009830176830291748e-01
2.086509168148040771e-01
2.057431191205978394e-01
1.944148838520050049e-01
1.833008378744125366e-01
1.804969012737274170e-01
1.869542002677917480e-01
1.955620199441909790e-01
1.970421373844146729e-01
1.877342313528060913e-01
1.726706475019454956e-01
1.615051776170730591e-01
1.610953062772750854e-01
1.699984222650527954e-01
1.796152144670486450e-01
1.812092214822769165e-01
1.731635183095932007e-01
1.619360893964767456e-01
1.566410213708877563e-01
1.615789979696273804e-01
1.727168112993240356e-01
1.809303611516952515e-01
1.796739399433135986e-01
1.704179644584655762e-01
1.612514406442642212e-01
1.604067534208297729e-01
1.693616360425949097e-01
1.815286278724670410e-01
1.875310838222503662e-01
1.830808818340301514e-01
1.724951565265655518e-01
1.649721860885620117e-01
1.673295944929122925e-01
1.782895326614379883e-01
1.892515271902084351e-01
1.912817060947418213e-01
1.822893023490905762e-01
1.685926318168640137e-01
1.596752554178237915e-01
1.608877331018447876e-01
1.693120747804641724e-01
1.762118339538574219e-01
1.744757741689682007e-01
1.645519733428955078e-01
1.540173292160034180e-01
1.513629257678985596e-01
1.589965522289276123e-01
1.711596399545669556e-01
1.784239560365676880e-01
1.756745129823684692e-01
1.662486493587493896e-01
1.018200293183326721e-01
9.549685567617416382e-02
8.747619390487670898e-02
8.532140403985977173e-02
9.175652265548706055e-02
1.023459210991859436e-01
1.090889722108840942e-01
1.072434559464454651e-01
9.923199564218521118e-02
9.260757267475128174e-02
9.410269558429718018e-02
1.040313839912414551e-01
1.159796118736267090e-01
1.218545436859130859e-01
1.185942217707633972e-01
1.105034798383712769e-01
1.056050509214401245e-01
1.091730073094367981e-01
1.193247064948081970e-01
1.285000443458557129e-01
1.296847164630889893e-01
1.221770271658897400e-01
1.120633333921432495e-01
1.072180643677711487e-01
1.109919548034667969e-01
1.194274500012397766e-01
1.244335174560546875e-01
1.204967573285102844e-01
1.091695949435234070e-01
9.784629195928573608e-02
9.385874867439270020e-02
9.864641726016998291e-02
1.066384240984916687e-01
1.098378747701644897e-01
1.045704931020736694e-01
9.442428499460220337e-02
8.715222030878067017e-02
8.853406459093093872e-02
9.755409508943557739e-02
1.070884466171264648e-01
1.097576990723609924e-01
1.038670241832733154e-01
9.466169774532318115e-02
8.992822468280792236e-02
9.387434273958206177e-02
1.034826263785362244e-01
1.113099828362464905e-01
1.119922176003456116e-01
1.069870367646217346e-01
1.034657061100006104e-01
1.082116439938545227e-01
1.214971691370010376e-01
1.362942904233932495e-01
1.433204859495162964e-01
1.380293518304824829e-01
1.235198155045509338e-01
1.070624664425849915e-01
9.417262673377990723e-02
8.461496233940124512e-02
7.439333200454711914e-02
6.196376308798789978e-02
5.395051836967468262e-02
6.456649303436279297e-02
1.091908290982246399e-01
1.955732107162475586e-01
3.183303177356719971e-01
4.610898792743682861e-01
6.042909622192382812e-01
7.332366108894348145e-01
8.407629132270812988e-01
9.243000745773315430e-01
9.800270795822143555e-01
1.000000000000000000e+00
9.749184250831604004e-01
9.005668163299560547e-01
7.823070883750915527e-01
6.348487138748168945e-01
4.778712093830108643e-01
3.299283087253570557e-01
2.040047049522399902e-01
1.069950610399246216e-01
4.157216846942901611e-02
7.261522114276885986e-03
0.000000000000000000e+00
1.120660081505775452e-02
2.897066436707973480e-02
4.180898517370223999e-02
4.418084025382995605e-02
3.925450518727302551e-02
3.594815731048583984e-02
4.198121279478073120e-02
5.801571533083915710e-02
7.697854936122894287e-02
8.932126313447952271e-02
9.030757099390029907e-02
8.345850557088851929e-02
7.739679515361785889e-02
7.924083620309829712e-02
8.910524100065231323e-02
1.002880856394767761e-01
1.050251200795173645e-01
1.009971871972084045e-01
9.324451535940170288e-02
8.992287516593933105e-02
9.564948827028274536e-02
1.075697988271713257e-01
1.175872758030891418e-01
1.190823987126350403e-01
1.122435778379440308e-01
1.037844717502593994e-01
1.014142483472824097e-01
1.076128557324409485e-01
1.176402792334556580e-01
1.235089749097824097e-01
1.207173839211463928e-01
1.118536889553070068e-01
1.044131070375442505e-01
1.048179939389228821e-01
1.131716892123222351e-01
1.231710538268089294e-01
1.273054331541061401e-01
1.231155246496200562e-01
1.151680573821067810e-01
1.111935824155807495e-01
1.159337311983108521e-01
1.269958615303039551e-01
1.366619169712066650e-01
1.381240785121917725e-01
1.311295032501220703e-01
1.220390945672988892e-01
1.186815202236175537e-01
1.241852715611457825e-01
1.343718618154525757e-01
1.412757188081741333e-01
1.399137675762176514e-01
1.323147714138031006e-01
1.257255375385284424e-01
1.266606152057647705e-01
1.354166716337203979e-01
1.455679237842559814e-01
1.491775959730148315e-01
1.433270126581192017e-01
1.325846910476684570e-01
1.252327561378479004e-01
1.266906112432479858e-01
1.351513415575027466e-01
1.428403258323669434e-01
1.423067152500152588e-01
1.326136440038681030e-01
1.199481487274169922e-01
1.126034781336784363e-01
1.144553869962692261e-01
1.219853460788726807e-01
1.273238509893417358e-01
1.250312775373458862e-01
1.166382357478141785e-01
1.090120673179626465e-01
1.086772605776786804e-01
1.161892563104629517e-01
1.255651861429214478e-01
1.291687786579132080e-01
1.239187642931938171e-01
1.139216274023056030e-01
1.070651337504386902e-01
1.089306995272636414e-01
1.182957887649536133e-01
1.279664337635040283e-01
1.305305659770965576e-01
1.243635863065719604e-01
1.149385198950767517e-01
1.103798002004623413e-01
1.150942668318748474e-01
1.260811239480972290e-01
1.350685060024261475e-01
1.353332251310348511e-01
1.270346194505691528e-01
1.168625801801681519e-01
1.123763173818588257e-01
1.157215610146522522e-01
1.221427246928215027e-01
1.241350919008255005e-01
1.181544438004493713e-01
1.076976358890533447e-01
1.005560755729675293e-01
1.024324819445610046e-01
1.121746897697448730e-01
1.225465759634971619e-01
1.258621215820312500e-01
1.202776059508323669e-01
1.112571284174919128e-01
1.069727838039398193e-01
1.119530200958251953e-01
1.230675652623176575e-01
1.318996399641036987e-01
1.318543553352355957e-01
1.237603425979614258e-01
1.153621077537536621e-01
1.149478703737258911e-01
1.246130242943763733e-01
1.381819844245910645e-01
1.721650660037994385e-01
1.642786115407943726e-01
1.599883884191513062e-01
1.640960723161697388e-01
1.743107885122299194e-01
1.828274279832839966e-01
1.826751381158828735e-01
1.736167669296264648e-01
1.622298359870910645e-01
1.569033414125442505e-01
1.615385413169860840e-01
1.727916300296783447e-01
1.831828355789184570e-01
1.873171329498291016e-01
1.860272586345672607e-01
1.850398480892181396e-01
1.898404955863952637e-01
2.007067203521728516e-01
2.119372785091400146e-01
2.161782085895538330e-01
2.105595171451568604e-01
1.993065923452377319e-01
1.905050128698348999e-01
1.897756159305572510e-01
1.955462843179702759e-01
2.002167254686355591e-01
1.963195502758026123e-01
1.828145682811737061e-01
1.660931408405303955e-01
1.550953239202499390e-01
1.543527692556381226e-01
1.605279892683029175e-01
1.650550514459609985e-01
1.611531972885131836e-01
1.491776555776596069e-01
1.359240412712097168e-01
1.290969848632812500e-01
1.311125010251998901e-01
1.373708993196487427e-01
1.402176022529602051e-01
1.354853063821792603e-01
1.258282065391540527e-01
1.183146983385086060e-01
1.184827238321304321e-01
1.254499554634094238e-01
1.324420124292373657e-01
1.323748528957366943e-01
1.238243356347084045e-01
1.122969090938568115e-01
1.057804971933364868e-01
1.084962263703346252e-01
1.173021793365478516e-01
1.241794377565383911e-01
1.229329556226730347e-01
1.143358573317527771e-01
1.051619499921798706e-01
1.022161990404129028e-01
1.061340868473052979e-01
1.098230108618736267e-01
1.035558357834815979e-01
8.305563777685165405e-02
5.391978099942207336e-02
2.919302508234977722e-02
2.264455333352088928e-02
4.233292117714881897e-02
8.933385461568832397e-02
1.613277196884155273e-01
2.570952475070953369e-01
3.768308162689208984e-01
5.177903771400451660e-01
6.692350506782531738e-01
8.115879297256469727e-01
9.224880337715148926e-01
9.862536787986755371e-01
1.000000000000000000e+00
9.712215065956115723e-01
9.095715284347534180e-01
8.193848133087158203e-01
6.996349096298217773e-01
5.514868497848510742e-01
3.869332969188690186e-01
2.294752299785614014e-01
1.050144955515861511e-01
2.921828255057334900e-02
0.000000000000000000e+00
2.955130185000598431e-04
9.137311019003391266e-03
1.336614135652780533e-02
1.192290615290403366e-02
1.147283148020505905e-02
1.815030723810195923e-02
3.181543946266174316e-02
4.619197919964790344e-02
5.459943041205406189e-02
5.579751357436180115e-02
5.473236739635467529e-02
5.819383263587951660e-02
6.893392652273178101e-02
8.291181921958923340e-02
9.228414297103881836e-02
9.191543608903884888e-02
8.377340435981750488e-02
7.554727792739868164e-02
7.475616782903671265e-02
8.292981237173080444e-02
9.447070211172103882e-02
1.012398228049278259e-01
9.929116070270538330e-02
9.208028018474578857e-02
8.733166009187698364e-02
9.074366837739944458e-02
1.010832935571670532e-01
1.110161021351814270e-01
1.133275777101516724e-01
1.070189625024795532e-01
9.820559620857238770e-02
9.509817510843276978e-02
1.015385091304779053e-01
1.136185526847839355e-01
1.227238029241561890e-01
1.226516589522361755e-01
1.146495193243026733e-01
1.062751933932304382e-01
1.053774580359458923e-01
1.137510314583778381e-01
1.257288455963134766e-01
1.326203048229217529e-01
1.299065500497817993e-01
1.208847835659980774e-01
1.137688830494880676e-01
1.151992604136466980e-01
1.248291432857513428e-01
1.357428580522537231e-01
1.400749832391738892e-01
1.355902552604675293e-01
1.273773014545440674e-01
1.235038712620735168e-01
1.284696757793426514e-01
1.393306106328964233e-01
1.479342132806777954e-01
1.478631198406219482e-01
1.398715674877166748e-01
1.312672197818756104e-01
1.299021691083908081e-01
1.376780569553375244e-01
1.487136781215667725e-01
1.539049595594406128e-01
1.484485566616058350e-01
1.356230825185775757e-01
1.239675581455230713e-01
1.206530928611755371e-01
1.260722875595092773e-01
1.339283436536788940e-01
1.365385055541992188e-01
1.312753856182098389e-01
1.224905997514724731e-01
1.176454871892929077e-01
1.212302073836326599e-01
1.306716501712799072e-01
1.382350623607635498e-01
1.372716873884201050e-01
1.278468817472457886e-01
1.168397068977355957e-01
1.126370355486869812e-01
1.186530143022537231e-01
1.305247992277145386e-01
1.395827084779739380e-01
1.398989409208297729e-01
1.327856183052062988e-01
1.252743750810623169e-01
1.240945979952812195e-01
1.302952319383621216e-01
1.384727954864501953e-01
1.413290202617645264e-01
1.361034065485000610e-01
1.268658190965652466e-01
1.211680471897125244e-01
1.238328069448471069e-01
1.326939612627029419e-01
1.400817930698394775e-01
1.389330029487609863e-01
1.287396252155303955e-01
1.162222102284431458e-01
1.100931167602539062e-01
1.142573654651641846e-01
1.244790330529212952e-01
1.319231241941452026e-01
1.303962469100952148e-01
1.213952004909515381e-01
1.126409694552421570e-01
1.116526499390602112e-01
1.196484416723251343e-01
1.304611265659332275e-01
1.357011198997497559e-01
1.317947208881378174e-01
1.227979063987731934e-01
1.169088184833526611e-01
1.199997588992118835e-01
1.307351738214492798e-01
1.415811330080032349e-01
2.091797888278961182e-01
2.154124975204467773e-01
2.258624732494354248e-01
2.332796752452850342e-01
2.317040562629699707e-01
2.227655947208404541e-01
2.143989950418472290e-01
2.144669443368911743e-01
2.240781038999557495e-01
2.365109771490097046e-01
2.425829321146011353e-01
2.381147891283035278e-01
2.273545414209365845e-01
2.193180024623870850e-01
2.205504775047302246e-01
2.298060804605484009e-01
2.388885021209716797e-01
2.397873997688293457e-01
2.318094223737716675e-01
2.225687652826309204e-01
2.219695597887039185e-01
2.344230562448501587e-01
2.548948228359222412e-01
2.723035514354705811e-01
2.778055071830749512e-01
2.712075114250183105e-01
2.603083252906799316e-01
2.544939517974853516e-01
2.573894560337066650e-01
2.643766105175018311e-01
2.667610049247741699e-01
2.592466473579406738e-01
2.446592748165130615e-01
2.314281910657882690e-01
2.269716262817382812e-01
2.313390821218490601e-01
2.370121926069259644e-01
2.350715994834899902e-01
2.227011620998382568e-01
2.056781649589538574e-01
1.937867850065231323e-01
1.929461210966110229e-01
2.002921700477600098e-01
2.064007073640823364e-01
2.030871957540512085e-01
1.901901960372924805e-01
1.755553185939788818e-01
1.686547696590423584e-01
1.728208661079406738e-01
1.824756562709808350e-01
1.876550912857055664e-01
1.822056770324707031e-01
1.686450392007827759e-01
1.558931916952133179e-01
1.522269695997238159e-01
1.587774753570556641e-01
1.687294393777847290e-01
1.729698777198791504e-01
1.676228046417236328e-01
1.569761633872985840e-01
1.496854871511459351e-01
1.518103182315826416e-01
1.615374237298965454e-01
1.699159443378448486e-01
1.675412654876708984e-01
1.515708714723587036e-01
1.273315399885177612e-01
1.039105579257011414e-01
8.753342926502227783e-02
7.818285375833511353e-02
7.306332141160964966e-02
7.393319159746170044e-02
9.133791923522949219e-02
1.409507393836975098e-01
2.340772300958633423e-01
3.684621751308441162e-01
5.261154174804687500e-01
6.805585026741027832e-01
8.092562556266784668e-01
9.023333787918090820e-01
9.619109034538269043e-01
9.940549135208129883e-01
1.000000000000000000e+00
9.735025763511657715e-01
9.061732888221740723e-01
7.967649698257446289e-01
6.564047336578369141e-01
5.053689479827880859e-01
3.640334606170654297e-01
2.448201924562454224e-01
1.505451202392578125e-01
7.920038700103759766e-02
2.966308221220970154e-02
3.193373093381524086e-03
0.000000000000000000e+00
1.464192848652601242e-02
3.531101346015930176e-02
4.958764463663101196e-02
5.212106555700302124e-02
4.762658104300498962e-02
4.647464677691459656e-02
5.661084875464439392e-02
7.710592448711395264e-02
9.869941323995590210e-02
1.110388115048408508e-01
1.108443289995193481e-01
1.043010279536247253e-01
1.017441153526306152e-01
1.093668639659881592e-01
1.242359951138496399e-01
1.369586437940597534e-01
1.396615356206893921e-01
1.325431913137435913e-01
1.233780384063720703e-01
1.211528629064559937e-01
1.287370175123214722e-01
1.408240497112274170e-01
1.484385728836059570e-01
1.467369347810745239e-01
1.389999091625213623e-01
1.337266713380813599e-01
1.376857161521911621e-01
1.500804871320724487e-01
1.626782864332199097e-01
1.663032472133636475e-01
1.583826541900634766e-01
1.452436894178390503e-01
1.372793018817901611e-01
1.409262418746948242e-01
1.538537740707397461e-01
1.668539643287658691e-01
1.712767928838729858e-01
1.658219993114471436e-01
1.570392549037933350e-01
1.537546068429946899e-01
1.599525660276412964e-01
1.714120358228683472e-01
1.793286055326461792e-01
1.778714358806610107e-01
1.692368686199188232e-01
1.618337631225585938e-01
1.635835617780685425e-01
1.752049475908279419e-01
1.892001926898956299e-01
1.958594322204589844e-01
1.912417858839035034e-01
1.804575473070144653e-01
1.733692437410354614e-01
1.766431480646133423e-01
1.881937384605407715e-01
1.988382041454315186e-01
1.997547149658203125e-01
1.896096169948577881e-01
1.754670590162277222e-01
1.670608520507812500e-01
1.691170632839202881e-01
1.777826696634292603e-01
1.838455647230148315e-01
1.806005090475082397e-01
1.693429201841354370e-01
1.580556184053421021e-01
1.547798514366149902e-01
1.609583646059036255e-01
1.701708287000656128e-01
1.733138710260391235e-01
1.664448678493499756e-01
1.539485752582550049e-01
1.447399556636810303e-01
1.452099680900573730e-01
1.539118289947509766e-01
1.628930717706680298e-01
1.643302738666534424e-01
1.571456342935562134e-01
1.479561626911163330e-01
1.454967260360717773e-01
1.535101234912872314e-01
1.673622131347656250e-01
1.774051338434219360e-01
1.768674999475479126e-01
1.673415750265121460e-01
1.572679579257965088e-01
1.551063805818557739e-01
1.624067872762680054e-01
1.725149750709533691e-01
1.761397570371627808e-01
1.692163944244384766e-01
1.561042815446853638e-01
1.460981220006942749e-01
1.459831744432449341e-01
1.546061784029006958e-01
1.638733595609664917e-01
1.653869003057479858e-01
1.571186184883117676e-01
1.448943316936492920e-01
1.376452744007110596e-01
1.405028849840164185e-01
1.506598889827728271e-01
1.595830768346786499e-01
1.599926799535751343e-01
1.516903489828109741e-01
1.996817439794540405e-01
1.947415173053741455e-01
1.876849979162216187e-01
1.855507940053939819e-01
1.902968883514404297e-01
1.973972618579864502e-01
2.002073526382446289e-01
1.961828768253326416e-01
1.895675659179687500e-01
1.880578398704528809e-01
1.968883126974105835e-01
2.141962051391601562e-01
2.317890822887420654e-01
2.408265620470046997e-01
2.383356988430023193e-01
2.290981411933898926e-01
2.216032445430755615e-01
2.215298414230346680e-01
2.273900359869003296e-01
2.319714128971099854e-01
2.285863459110260010e-01
2.169108986854553223e-01
2.032271325588226318e-01
1.952051967382431030e-01
1.956082135438919067e-01
1.999228596687316895e-01
2.000644803047180176e-01
1.912626177072525024e-01
1.760700643062591553e-01
1.623083353042602539e-01
1.569323986768722534e-01
1.605175584554672241e-01
1.668207049369812012e-01
1.679173558950424194e-01
1.607154607772827148e-01
1.494046598672866821e-01
1.418380886316299438e-01
1.432296186685562134e-01
1.517207324504852295e-01
1.597568094730377197e-01
1.601903140544891357e-01
1.521570682525634766e-01
1.415592432022094727e-01
1.360962390899658203e-01
1.389888525009155273e-01
1.462313234806060791e-01
1.499150246381759644e-01
1.449416428804397583e-01
1.335722208023071289e-01
1.235542446374893188e-01
1.219149976968765259e-01
1.290467977523803711e-01
1.380666643381118774e-01
1.396774649620056152e-01
1.291532069444656372e-01
1.093087121844291687e-01
8.758478611707687378e-02
7.028772681951522827e-02
5.875954777002334595e-02
5.077251791954040527e-02
4.651980847120285034e-02
5.369814112782478333e-02
8.666904270648956299e-02
1.591859161853790283e-01
2.753123939037322998e-01
4.242403209209442139e-01
5.832964181900024414e-01
7.282025218009948730e-01
8.431884646415710449e-01
9.245730638504028320e-01
9.760527610778808594e-01
1.000000000000000000e+00
9.918385148048400879e-01
9.422882199287414551e-01
8.454412221908569336e-01
7.066476941108703613e-01
5.439987778663635254e-01
3.822779953479766846e-01
2.428037524223327637e-01
1.366149485111236572e-01
6.420369446277618408e-02
2.066954970359802246e-02
7.348243962042033672e-04
0.000000000000000000e+00
1.302297506481409073e-02
3.140820190310478210e-02
4.558960720896720886e-02
5.008343234658241272e-02
4.736434668302536011e-02
4.578451439738273621e-02
5.303907766938209534e-02
7.007537037134170532e-02
8.996545523405075073e-02
1.029254049062728882e-01
1.040182858705520630e-01
9.669534862041473389e-02
8.998039364814758301e-02
9.143809229135513306e-02
1.015783548355102539e-01
1.137668564915657043e-01
1.199910938739776611e-01
1.175995692610740662e-01
1.113504990935325623e-01
1.091700717806816101e-01
1.154854744672775269e-01
1.272731572389602661e-01
1.362776309251785278e-01
1.359566599130630493e-01
1.269834786653518677e-01
1.167878881096839905e-01
1.136099845170974731e-01
1.201602220535278320e-01
1.312707662582397461e-01
1.381520181894302368e-01
1.356143206357955933e-01
1.262407898902893066e-01
1.180744171142578125e-01
1.183677166700363159e-01
1.277808547019958496e-01
1.398115456104278564e-01
1.460841894149780273e-01
1.430656760931015015e-01
1.349088847637176514e-01
1.297299116849899292e-01
1.331200003623962402e-01
1.435718089342117310e-01
1.537329703569412231e-01
1.563992500305175781e-01
1.505943685770034790e-01
1.423464119434356689e-01
1.397975534200668335e-01
1.465430110692977905e-01
1.583740711212158203e-01
1.664846539497375488e-01
1.647537648677825928e-01
1.549299061298370361e-01
1.451357603073120117e-01
1.435669362545013428e-01
1.519242823123931885e-01
1.640239655971527100e-01
1.708104461431503296e-01
1.677892655134201050e-01
1.583703011274337769e-01
1.506193578243255615e-01
1.505096405744552612e-01
1.570193320512771606e-01
1.632405817508697510e-01
1.622503399848937988e-01
1.531284451484680176e-01
1.418184340000152588e-01
1.363035589456558228e-01
1.402835547924041748e-01
1.499854475259780884e-01
1.571323424577713013e-01
1.555661857128143311e-01
1.462377607822418213e-01
1.361765563488006592e-01
1.330403089523315430e-01
1.389839798212051392e-01
1.489354670047760010e-01
1.547534018754959106e-01
1.523054540157318115e-01
1.447714120149612427e-01
1.397189646959304810e-01
1.428398042917251587e-01
1.529794484376907349e-01
1.628534346818923950e-01
1.648314148187637329e-01
1.573435962200164795e-01
1.461700201034545898e-01
1.399566233158111572e-01
1.434575319290161133e-01
1.538469344377517700e-01
1.628999710083007812e-01
1.636982858180999756e-01
1.561136394739151001e-01
1.466841548681259155e-01
1.430873721837997437e-01
1.477864682674407959e-01
1.559561491012573242e-01
1.595273166894912720e-01
1.541977524757385254e-01
1.430906653404235840e-01
1.342661678791046143e-01
1.344276070594787598e-01
1.434026807546615601e-01
1.540698111057281494e-01
1.580438315868377686e-01
1.525464057922363281e-01
1.425946056842803955e-01
1.368860751390457153e-01
1.408928036689758301e-01
1.523846685886383057e-01
1.630995869636535645e-01
1.655247360467910767e-01
1.590834408998489380e-01
1.505006849765777588e-01
1.481648087501525879e-01
1.553940623998641968e-01
1.676806509494781494e-01
1.580765545368194580e-01
1.549615263938903809e-01
1.471089869737625122e-01
1.421070992946624756e-01
1.455616056919097900e-01
1.563047617673873901e-01
1.668436229228973389e-01
1.691374182701110840e-01
1.610998064279556274e-01
1.482920944690704346e-01
1.397761851549148560e-01
1.415986120700836182e-01
1.524634361267089844e-01
1.652785241603851318e-01
1.732022613286972046e-01
1.751100122928619385e-01
1.755068749189376831e-01
1.801701933145523071e-01
1.903471797704696655e-01
2.014759331941604614e-01
2.069711387157440186e-01
2.041921466588973999e-01
1.967334598302841187e-01
1.911282986402511597e-01
1.904882341623306274e-01
1.917572617530822754e-01
1.888385564088821411e-01
1.783419102430343628e-01
1.634290665388107300e-01
1.514933407306671143e-01
1.478471457958221436e-01
1.508669406175613403e-01
1.538433283567428589e-01
1.505436748266220093e-01
1.406983733177185059e-01
1.300789862871170044e-01
1.257312893867492676e-01
1.299244165420532227e-01
1.380375921726226807e-01
1.419863253831863403e-01
1.368567347526550293e-01
1.247924417257308960e-01
1.133390665054321289e-01
1.097148060798645020e-01
1.152136102318763733e-01
1.241574734449386597e-01
1.283723860979080200e-01
1.238487809896469116e-01
1.136453524231910706e-01
1.051850393414497375e-01
1.041788905858993530e-01
1.100825294852256775e-01
1.166993975639343262e-01
1.176679953932762146e-01
1.119205728173255920e-01
1.042633131146430969e-01
1.006576791405677795e-01
1.022920235991477966e-01
1.034207493066787720e-01
9.521279484033584595e-02
7.313673943281173706e-02
4.167624190449714661e-02
1.281643379479646683e-02
0.000000000000000000e+00
1.214782241731882095e-02
5.160192027688026428e-02
1.171094849705696106e-01
2.078713774681091309e-01
3.244791626930236816e-01
4.650315046310424805e-01
6.200010180473327637e-01
7.707366347312927246e-01
8.942493796348571777e-01
9.725753664970397949e-01
1.000000000000000000e+00
9.827014207839965820e-01
9.312009215354919434e-01
8.516015410423278809e-01
7.429897785186767578e-01
6.038959026336669922e-01
4.422285556793212891e-01
2.790964841842651367e-01
1.418272405862808228e-01
5.091963708400726318e-02
9.689386002719402313e-03
4.028794821351766586e-03
1.237224508076906204e-02
1.841408573091030121e-02
1.792798563838005066e-02
1.619704626500606537e-02
2.033579908311367035e-02
3.230786696076393127e-02
4.729462414979934692e-02
5.816170573234558105e-02
6.177965924143791199e-02
6.145864725112915039e-02
6.376340985298156738e-02
7.270561903715133667e-02
8.596744388341903687e-02
9.658682346343994141e-02
9.892613440752029419e-02
9.375825524330139160e-02
8.768036216497421265e-02
8.777619898319244385e-02
9.588531404733657837e-02
1.070744544267654419e-01
1.136470064520835876e-01
1.115588545799255371e-01
1.036101728677749634e-01
9.714862704277038574e-02
9.826398640871047974e-02
1.070202291011810303e-01
1.173044666647911072e-01
1.217688918113708496e-01
1.176490634679794312e-01
1.090424358844757080e-01
1.035880893468856812e-01
1.065407395362854004e-01
1.165161356329917908e-01
1.264255940914154053e-01
1.292786449193954468e-01
1.240460127592086792e-01
1.163225099444389343e-01
1.135226264595985413e-01
1.187198013067245483e-01
1.279269903898239136e-01
1.334681659936904907e-01
1.306517720222473145e-01
1.220260635018348694e-01
1.152355447411537170e-01
1.169226169586181641e-01
1.269918978214263916e-01
1.384933441877365112e-01
1.432404667139053345e-01
1.385405063629150391e-01
1.293316632509231567e-01
1.241212710738182068e-01
1.281077116727828979e-01
1.389013379812240601e-01
1.484585255384445190e-01
1.497625559568405151e-01
1.425362527370452881e-01
1.333110481500625610e-01
1.299498081207275391e-01
1.353733539581298828e-01
1.451118588447570801e-01
1.507726013660430908e-01
1.469487100839614868e-01
1.355818510055541992e-01
1.243907585740089417e-01
1.208684965968132019e-01
1.263522803783416748e-01
1.348674297332763672e-01
1.380297839641571045e-01
1.318755745887756348e-01
1.201343908905982971e-01
1.111646890640258789e-01
1.114445403218269348e-01
1.202197149395942688e-01
1.300414353609085083e-01
1.328303515911102295e-01
1.266349852085113525e-01
1.172576025128364563e-01
1.134617924690246582e-01
1.198621988296508789e-01
1.328426748514175415e-01
1.432642042636871338e-01
1.440041661262512207e-01
1.357712745666503906e-01
1.261878013610839844e-01
1.236623600125312805e-01
1.304546892642974854e-01
1.409920454025268555e-01
1.464921981096267700e-01
1.423187404870986938e-01
1.317797452211380005e-01
1.231397613883018494e-01
1.232054084539413452e-01
1.317794322967529297e-01
1.417246460914611816e-01
1.447806358337402344e-01
1.384107321500778198e-01
1.277315616607666016e-01
1.211842522025108337e-01
1.237984597682952881e-01
1.330085098743438721e-01
1.408089250326156616e-01
1.407662630081176758e-01
1.334154456853866577e-01
1.256648898124694824e-01
1.249862164258956909e-01
1.331531703472137451e-01
1.447493880987167358e-01
1.514209359884262085e-01
1.487895995378494263e-01
1.400401145219802856e-01
1.333196014165878296e-01
1.353138685226440430e-01
1.458775103092193604e-01
1.579790711402893066e-01
2.375964820384979248e-01
2.289520055055618286e-01
2.268579602241516113e-01
2.337552160024642944e-01
2.445458173751831055e-01
2.507282793521881104e-01
2.474681884050369263e-01
2.374732345342636108e-01
2.286822050809860229e-01
2.278084158897399902e-01
2.349395602941513062e-01
2.437396496534347534e-01
2.470400333404541016e-01
2.429732680320739746e-01
2.367660552263259888e-01
2.362175583839416504e-01
2.452306747436523438e-01
2.602258622646331787e-01
2.724969685077667236e-01
2.749145030975341797e-01
2.675129175186157227e-01
2.572636902332305908e-01
2.526062130928039551e-01
2.569617033004760742e-01
2.659020423889160156e-01
2.707322537899017334e-01
2.657786309719085693e-01
2.530165910720825195e-01
2.400635182857513428e-01
2.340520322322845459e-01
2.355550229549407959e-01
2.380404919385910034e-01
2.334181219339370728e-01
2.193051427602767944e-01
2.012738883495330811e-01
1.884663999080657959e-01
1.864152401685714722e-01
1.925595253705978394e-01
1.983403712511062622e-01
1.961188763380050659e-01
1.854693144559860229e-01
1.733345538377761841e-01
1.683613359928131104e-01
1.738612055778503418e-01
1.849373131990432739e-01
1.921025812625885010e-01
1.887751817703247070e-01
1.765775084495544434e-01
1.639780402183532715e-01
1.595953702926635742e-01
1.655020564794540405e-01
1.753522455692291260e-01
1.795619875192642212e-01
1.732234209775924683e-01
1.599575430154800415e-01
1.486321836709976196e-01
1.460766643285751343e-01
1.510912925004959106e-01
1.550664901733398438e-01
1.487334370613098145e-01
1.294120550155639648e-01
1.029362455010414124e-01
7.909568399190902710e-02
6.502411514520645142e-02
6.208427995443344116e-02
6.906951963901519775e-02
8.863756805658340454e-02
1.308055520057678223e-01
2.084360867738723755e-01
3.282113075256347656e-01
4.821570217609405518e-01
6.472702622413635254e-01
7.949554920196533203e-01
9.043763875961303711e-01
9.700368046760559082e-01
9.987508058547973633e-01
1.000000000000000000e+00
9.761712551116943359e-01
9.203246235847473145e-01
8.233843445777893066e-01
6.854272484779357910e-01
5.217528343200683594e-01
3.583983480930328369e-01
2.203424572944641113e-01
1.208820864558219910e-01
5.849824845790863037e-02
2.294768765568733215e-02
4.818739835172891617e-03
0.000000000000000000e+00
7.469038479030132294e-03
2.378232590854167938e-02
4.099462926387786865e-02
5.075908452272415161e-02
5.052616074681282043e-02
4.576096311211585999e-02
4.581514745950698853e-02
5.675764009356498718e-02
7.639605551958084106e-02
9.560534358024597168e-02
1.052801832556724548e-01
1.033142581582069397e-01
9.585540741682052612e-02
9.237047284841537476e-02
9.831144660711288452e-02
1.111873462796211243e-01
1.226953268051147461e-01
1.255282461643218994e-01
1.193181127309799194e-01
1.106956228613853455e-01
1.080660298466682434e-01
1.150470674037933350e-01
1.274475902318954468e-01
1.367468386888504028e-01
1.370609551668167114e-01
1.300524324178695679e-01
1.232654973864555359e-01
1.239857748150825500e-01
1.330951452255249023e-01
1.441823989152908325e-01
1.488743275403976440e-01
1.439869999885559082e-01
1.343448311090469360e-01
1.286919414997100830e-01
1.326563060283660889e-01
1.439578831195831299e-01
1.541000306606292725e-01
1.554695814847946167e-01
1.473310440778732300e-01
1.366125792264938354e-01
1.316794902086257935e-01
1.350120604038238525e-01
1.419702768325805664e-01
1.455754041671752930e-01
1.431633681058883667e-01
1.389413177967071533e-01
1.397816240787506104e-01
1.481035798788070679e-01
1.588739603757858276e-01
1.639696210622787476e-01
1.592608690261840820e-01
1.486515849828720093e-01
1.409970223903656006e-01
1.424819082021713257e-01
1.517877876758575439e-01
1.608533114194869995e-01
1.615797430276870728e-01
1.526856720447540283e-01
1.407116949558258057e-01
1.345714479684829712e-01
1.384876072406768799e-01
1.482986509799957275e-01
1.548654437065124512e-01
1.517552733421325684e-01
1.407587677240371704e-01
1.301035434007644653e-01
1.277301609516143799e-01
1.346988976001739502e-01
1.443357318639755249e-01
1.478429883718490601e-01
1.418552696704864502e-01
1.312335431575775146e-01
1.249810382723808289e-01
1.292035579681396484e-01
1.420406401157379150e-01
1.550239473581314087e-01
1.594848930835723877e-01
1.532822102308273315e-01
1.422656476497650146e-01
1.355717182159423828e-01
1.387151926755905151e-01
1.492806375026702881e-01
1.590017527341842651e-01
1.605537533760070801e-01
1.534690409898757935e-01
1.441425979137420654e-01
1.403794586658477783e-01
1.449623554944992065e-01
1.535515338182449341e-01
1.581988185644149780e-01
1.541844606399536133e-01
1.440442651510238647e-01
1.354030072689056396e-01
1.350340545177459717e-01
1.431680470705032349e-01
1.532938629388809204e-01
1.572014540433883667e-01
1.518054157495498657e-01
1.415780335664749146e-01
1.348111629486083984e-01
1.370540112257003784e-01
1.465077400207519531e-01
1.556693464517593384e-01
1.578190177679061890e-01
1.526529937982559204e-01
1.463522911071777344e-01
1.465113013982772827e-01
1.557549089193344116e-01
1.692124754190444946e-01
1.781139820814132690e-01
1.769534200429916382e-01
