2.447903901338577271e-01
2.361430823802947998e-01
2.226204872131347656e-01
2.151908725500106812e-01
2.192856967449188232e-01
2.301793098449707031e-01
2.369151860475540161e-01
2.317185401916503906e-01
2.169075906276702881e-01
2.033117711544036865e-01
2.019720971584320068e-01
2.154119908809661865e-01
2.356904149055480957e-01
2.507705688476562500e-01
2.541573345661163330e-01
2.492709457874298096e-01
2.457073181867599487e-01
2.509752810001373291e-01
2.638911902904510498e-01
2.758533358573913574e-01
2.777766585350036621e-01
2.678955793380737305e-01
2.531269490718841553e-01
2.434906214475631714e-01
2.439664751291275024e-01
2.501737177371978760e-01
2.517636120319366455e-01
2.411926537752151489e-01
2.205037176609039307e-01
2.000577747821807861e-01
1.903895735740661621e-01
1.938045024871826172e-01
2.024603337049484253e-01
2.047708481550216675e-01
1.953179687261581421e-01
1.788574159145355225e-01
1.661822348833084106e-01
1.651977151632308960e-01
1.744449436664581299e-01
1.841243952512741089e-01
1.839866489171981812e-01
1.718302816152572632e-01
1.553195118904113770e-01
1.456825435161590576e-01
1.486108452081680298e-01
1.593412756919860840e-01
1.667234152555465698e-01
1.620661765336990356e-01
1.463418453931808472e-01
1.294279694557189941e-01
1.220210492610931396e-01
1.271230876445770264e-01
1.375651508569717407e-01
1.414584964513778687e-01
1.309168189764022827e-01
1.071893498301506042e-01
7.831092923879623413e-02
5.262536182999610901e-02
3.322814404964447021e-02
1.856476813554763794e-02
8.801790885627269745e-03
1.214575022459030151e-02
4.418403655290603638e-02
1.201115548610687256e-01
2.443840652704238892e-01
4.042299985885620117e-01
5.733830332756042480e-01
7.241764664649963379e-01
8.400496244430541992e-01
9.198257327079772949e-01
9.713838696479797363e-01
9.997608661651611328e-01
1.000000000000000000e+00
9.598116278648376465e-01
8.697387576103210449e-01
7.332764267921447754e-01
5.687553882598876953e-01
4.024056196212768555e-01
2.571191191673278809e-01
1.451939791440963745e-01
6.799180805683135986e-02
2.140842191874980927e-02
3.611090069171041250e-04
0.000000000000000000e+00
1.415856275707483292e-02
3.355352953076362610e-02
4.800320044159889221e-02
5.210719257593154907e-02
4.881022125482559204e-02
4.681623727083206177e-02
5.424214527010917664e-02
7.224336266517639160e-02
9.343422204256057739e-02
1.072194427251815796e-01
1.079046502709388733e-01
9.932879358530044556e-02
9.185799211263656616e-02
9.444497525691986084e-02
1.073652431368827820e-01
1.220492124557495117e-01
1.280546635389328003e-01
1.222162470221519470e-01
1.112988144159317017e-01
1.062075644731521606e-01
1.129614636301994324e-01
1.277521252632141113e-01
1.399368196725845337e-01
1.406342536211013794e-01
1.298293173313140869e-01
1.159433498978614807e-01
1.091847866773605347e-01
1.136463508009910583e-01
1.246530935168266296e-01
1.327741891145706177e-01
1.319772899150848389e-01
1.243825852870941162e-01
1.183243542909622192e-01
1.213728561997413635e-01
1.337358504533767700e-01
1.475556790828704834e-01
1.528704464435577393e-01
1.458175629377365112e-01
1.317397803068161011e-01
1.208072155714035034e-01
1.201498508453369141e-01
1.281650513410568237e-01
1.359750777482986450e-01
1.350325644016265869e-01
1.245950013399124146e-01
1.123256608843803406e-01
1.079999133944511414e-01
1.155732274055480957e-01
1.295346617698669434e-01
1.390639841556549072e-01
1.367347985506057739e-01
1.246400550007820129e-01
1.127410009503364563e-01
1.109892055392265320e-01
1.211742833256721497e-01
1.353983432054519653e-01
1.424002200365066528e-01
1.368575841188430786e-01
1.237168461084365845e-01
1.140335276722908020e-01
1.159489825367927551e-01
1.278110295534133911e-01
1.395340412855148315e-01
1.410013139247894287e-01
1.305320560932159424e-01
1.158194392919540405e-01
1.079830229282379150e-01
1.124175488948822021e-01
1.253048330545425415e-01
1.375344097614288330e-01
1.426639705896377563e-01
1.418524384498596191e-01
1.416940838098526001e-01
1.467856615781784058e-01
1.549757868051528931e-01
1.597006171941757202e-01
1.561608165502548218e-01
1.465000212192535400e-01
1.387176811695098877e-01
1.397947221994400024e-01
1.492078602313995361e-01
1.596875786781311035e-01
1.632006764411926270e-01
1.581255197525024414e-01
1.506267040967941284e-01
1.492608040571212769e-01
1.575872302055358887e-01
1.706563532352447510e-01
1.784457862377166748e-01
1.743139475584030151e-01
1.606735587120056152e-01
1.472376883029937744e-01
1.434558629989624023e-01
1.512555927038192749e-01
1.633463054895401001e-01
1.694269031286239624e-01
1.647561490535736084e-01
1.539944857358932495e-01
1.471367925405502319e-01
1.513561755418777466e-01
1.649172306060791016e-01
1.782988607883453369e-01
1.817767024040222168e-01
1.731582134962081909e-01
1.596573293209075928e-01
1.521580517292022705e-01
1.566244363784790039e-01
1.691686213016510010e-01
1.794037520885467529e-01
1.791897267103195190e-01
1.698295325040817261e-01
1.606920659542083740e-01
1.614796072244644165e-01
1.737759858369827271e-01
1.892554014921188354e-01
1.961528360843658447e-01
2.329959422349929810e-01
2.219929397106170654e-01
2.120987921953201294e-01
2.131509035825729370e-01
2.270978540182113647e-01
2.460416257381439209e-01
2.583820819854736328e-01
2.576235830783843994e-01
2.471976131200790405e-01
2.372293174266815186e-01
2.366368323564529419e-01
2.461045235395431519e-01
2.580583095550537109e-01
2.633271515369415283e-01
2.591925263404846191e-01
2.514971792697906494e-01
2.494683116674423218e-01
2.579213976860046387e-01
2.728973329067230225e-01
2.841322720050811768e-01
2.834182083606719971e-01
2.714756727218627930e-01
2.571948766708374023e-01
2.508999109268188477e-01
2.561586797237396240e-01
2.671959102153778076e-01
2.735186517238616943e-01
2.685504853725433350e-01
2.547413408756256104e-01
2.412980198860168457e-01
2.366707623004913330e-01
2.411512136459350586e-01
2.463380843400955200e-01
2.420521676540374756e-01
2.252455055713653564e-01
2.031673043966293335e-01
1.880037337541580200e-01
1.874583810567855835e-01
1.984148472547531128e-01
2.092102468013763428e-01
2.091417908668518066e-01
1.968783289194107056e-01
1.807902306318283081e-01
1.714211702346801758e-01
1.729318648576736450e-01
1.801627725362777710e-01
1.836643666028976440e-01
1.782251745462417603e-01
1.673439145088195801e-01
1.599815040826797485e-01
1.626166701316833496e-01
1.734330803155899048e-01
1.833649128675460815e-01
1.831855326890945435e-01
1.708702743053436279e-01
1.526121944189071655e-01
1.375166177749633789e-01
1.298606097698211670e-01
1.247701048851013184e-01
1.119579970836639404e-01
8.444073796272277832e-02
4.600799828767776489e-02
1.151036843657493591e-02
0.000000000000000000e+00
2.522944100201129913e-02
8.976315706968307495e-02
1.866032034158706665e-01
3.058173358440399170e-01
4.398584663867950439e-01
5.827787518501281738e-01
7.259484529495239258e-01
8.549954891204833984e-01
9.514913558959960938e-01
1.000000000000000000e+00
9.957654476165771484e-01
9.458721280097961426e-01
8.627882599830627441e-01
7.564941644668579102e-01
6.312372684478759766e-01
4.900342524051666260e-01
3.419891297817230225e-01
2.050900459289550781e-01
1.003305390477180481e-01
4.079950973391532898e-02
2.426649257540702820e-02
3.446865826845169067e-02
5.069905892014503479e-02
5.884938314557075500e-02
5.725567415356636047e-02
5.405610054731369019e-02
5.919013172388076782e-02
7.563368231058120728e-02
9.670360386371612549e-02
1.111994907259941101e-01
1.126881241798400879e-01
1.046308651566505432e-01
9.729533642530441284e-02
9.956408292055130005e-02
1.114656329154968262e-01
1.243601590394973755e-01
1.284721046686172485e-01
1.213704347610473633e-01
1.097440347075462341e-01
1.040621027350425720e-01
1.104174256324768066e-01
1.258656084537506104e-01
1.410026103258132935e-01
1.474661529064178467e-01
1.442764848470687866e-01
1.378548145294189453e-01
1.361952126026153564e-01
1.419615000486373901e-01
1.505503058433532715e-01
1.538875252008438110e-01
1.478412747383117676e-01
1.361413300037384033e-01
1.273705959320068359e-01
1.280749142169952393e-01
1.372971683740615845e-01
1.470622122287750244e-01
1.490594148635864258e-01
1.418249011039733887e-01
1.319361627101898193e-01
1.287268400192260742e-01
1.367895007133483887e-01
1.519011259078979492e-01
1.640072762966156006e-01
1.649163514375686646e-01
1.546707898378372192e-01
1.412780582904815674e-01
1.345899403095245361e-01
1.386966258287429810e-01
1.488052755594253540e-01
1.554136872291564941e-01
1.522700935602188110e-01
1.416822969913482666e-01
1.324247717857360840e-01
1.325325518846511841e-01
1.423519402742385864e-01
1.539223492145538330e-01
1.573374867439270020e-01
1.490669250488281250e-01
1.350009441375732422e-01
1.259243041276931763e-01
1.287277340888977051e-01
1.407944113016128540e-01
1.519059389829635620e-01
1.525503545999526978e-01
1.418161988258361816e-01
1.277918070554733276e-01
1.208564639091491699e-01
1.251476258039474487e-01
1.352337598800659180e-01
1.411608308553695679e-01
1.371177881956100464e-01
1.264292597770690918e-01
1.184159889817237854e-01
1.207411810755729675e-01
1.330842077732086182e-01
1.473891586065292358e-01
1.545873284339904785e-01
1.519641727209091187e-01
1.450926363468170166e-01
1.431638747453689575e-01
1.518831253051757812e-01
1.685949116945266724e-01
1.840456575155258179e-01
1.893323510885238647e-01
1.827806830406188965e-01
1.711755990982055664e-01
1.645919531583786011e-01
1.683592498302459717e-01
1.789281368255615234e-01
1.870671957731246948e-01
1.858151406049728394e-01
1.765272915363311768e-01
1.674721091985702515e-01
1.668216735124588013e-01
1.755859553813934326e-01
1.867537647485733032e-01
1.909988522529602051e-01
1.845470219850540161e-01
1.721531003713607788e-01
1.631202846765518188e-01
1.642223894596099854e-01
1.742067486047744751e-01
1.847095787525177002e-01
1.870151162147521973e-01
1.794257462024688721e-01
1.685706079006195068e-01
1.641390770673751831e-01
1.710834205150604248e-01
1.852369159460067749e-01
1.965279728174209595e-01
1.975266486406326294e-01
1.896475702524185181e-01
1.819155961275100708e-01
1.835294216871261597e-01
1.960539370775222778e-01
2.120021283626556396e-01
2.160734236240386963e-01
2.263749539852142334e-01
2.328230440616607666e-01
2.275161296129226685e-01
2.122392207384109497e-01
1.974923759698867798e-01
1.944946348667144775e-01
2.061279118061065674e-01
2.243338674306869507e-01
2.362863719463348389e-01
2.345038950443267822e-01
2.227315008640289307e-01
2.124598473310470581e-01
2.136474400758743286e-01
2.266857475042343140e-01
2.420374304056167603e-01
2.475697100162506104e-01
2.385859191417694092e-01
2.214823067188262939e-01
2.088261842727661133e-01
2.099219411611557007e-01
2.238743603229522705e-01
2.406817078590393066e-01
2.495976388454437256e-01
2.476347088813781738e-01
2.410402595996856689e-01
2.396035045385360718e-01
2.479981482028961182e-01
2.613111138343811035e-01
2.691645324230194092e-01
2.648183405399322510e-01
2.510164976119995117e-01
2.381706386804580688e-01
2.357752025127410889e-01
2.444775998592376709e-01
2.550137639045715332e-01
2.555605471134185791e-01
2.414916604757308960e-01
2.193228751420974731e-01
2.012563645839691162e-01
1.957862079143524170e-01
2.012281715869903564e-01
2.073291689157485962e-01
2.035327851772308350e-01
1.877364367246627808e-01
1.676413267850875854e-01
1.543513238430023193e-01
1.537905335426330566e-01
1.621634066104888916e-01
1.694160401821136475e-01
1.678396761417388916e-01
1.583273410797119141e-01
1.491595357656478882e-01
1.487555801868438721e-01
1.582279056310653687e-01
1.699780076742172241e-01
1.737050265073776245e-01
1.649955511093139648e-01
1.490584164857864380e-01
1.365780383348464966e-01
1.355118304491043091e-01
1.445082873106002808e-01
1.536760777235031128e-01
1.520240902900695801e-01
1.357679218053817749e-01
1.106506660580635071e-01
8.658528327941894531e-02
6.959696859121322632e-02
5.748527497053146362e-02
4.398864880204200745e-02
2.804240770637989044e-02
2.061977982521057129e-02
4.190754517912864685e-02
1.100719869136810303e-01
2.289663851261138916e-01
3.836673200130462646e-01
5.474050641059875488e-01
6.952461600303649902e-01
8.140332102775573730e-01
9.027876853942871094e-01
9.651020169258117676e-01
1.000000000000000000e+00
9.994760155677795410e-01
9.541562795639038086e-01
8.615336418151855469e-01
7.306089401245117188e-01
5.797523260116577148e-01
4.293204545974731445e-01
2.942608594894409180e-01
1.817716658115386963e-01
9.421200305223464966e-02
3.355544432997703552e-02
2.267303178086876869e-03
0.000000000000000000e+00
1.941666193306446075e-02
4.583831503987312317e-02
6.350052356719970703e-02
6.513646990060806274e-02
5.628924816846847534e-02
5.017406120896339417e-02
5.759061127901077271e-02
7.849669456481933594e-02
1.020721942186355591e-01
1.154420375823974609e-01
1.134718433022499084e-01
1.021010577678680420e-01
9.321804344654083252e-02
9.552063047885894775e-02
1.080735996365547180e-01
1.215729191899299622e-01
1.264625340700149536e-01
1.210813447833061218e-01
1.126532778143882751e-01
1.111127063632011414e-01
1.205874010920524597e-01
1.356310099363327026e-01
1.455449610948562622e-01
1.435956954956054688e-01
1.329445540904998779e-01
1.237034872174263000e-01
1.247946843504905701e-01
1.365164220333099365e-01
1.503029018640518188e-01
1.557463854551315308e-01
1.493121385574340820e-01
1.371460855007171631e-01
1.301586627960205078e-01
1.352873146533966064e-01
1.498671919107437134e-01
1.632726639509201050e-01
1.654943823814392090e-01
1.552045047283172607e-01
1.408435702323913574e-01
1.336402148008346558e-01
1.384347975254058838e-01
1.496975421905517578e-01
1.562479287385940552e-01
1.511861234903335571e-01
1.379314064979553223e-01
1.272480189800262451e-01
1.282359063625335693e-01
1.406842023134231567e-01
1.551634818315505981e-01
1.607553511857986450e-01
1.538273394107818604e-01
1.408474445343017578e-01
1.327951550483703613e-01
1.366764605045318604e-01
1.496521234512329102e-01
1.612337529659271240e-01
1.614067852497100830e-01
1.485827118158340454e-01
1.307260394096374512e-01
1.192112565040588379e-01
1.202901229262351990e-01
1.303521096706390381e-01
1.393853724002838135e-01
1.395229548215866089e-01
1.312805712223052979e-01
1.226531416177749634e-01
1.223482713103294373e-01
1.322713345289230347e-01
1.456437110900878906e-01
1.525941789150238037e-01
1.486939638853073120e-01
1.389790475368499756e-01
1.338134258985519409e-01
1.405624896287918091e-01
1.570511311292648315e-01
1.729884147644042969e-01
1.780711561441421509e-01
1.705244481563568115e-01
1.581203788518905640e-01
1.517848968505859375e-01
1.570874154567718506e-01
1.698861718177795410e-01
1.798762530088424683e-01
1.792508065700531006e-01
1.689967066049575806e-01
1.578519642353057861e-01
1.553414016962051392e-01
1.640086770057678223e-01
1.771683543920516968e-01
1.840651333332061768e-01
1.790791302919387817e-01
1.664665639400482178e-01
1.567594259977340698e-01
1.581291556358337402e-01
1.695870459079742432e-01
1.816356033086776733e-01
1.841588318347930908e-01
1.749214828014373779e-01
1.616265773773193359e-01
1.554377973079681396e-01
1.625248342752456665e-01
1.789481341838836670e-01
1.937105059623718262e-01
1.977825611829757690e-01
1.911514848470687866e-01
1.823336333036422729e-01
1.957442313432693481e-01
1.880593746900558472e-01
1.796044111251831055e-01
1.796666681766510010e-01
1.906027197837829590e-01
2.053304612636566162e-01
2.126299589872360229e-01
2.064783573150634766e-01
1.913791149854660034e-01
1.789255738258361816e-01
1.790395826101303101e-01
1.923109292984008789e-01
2.097737342119216919e-01
2.202344834804534912e-01
2.194869518280029297e-01
2.131701558828353882e-01
2.114763855934143066e-01
2.200373560190200806e-01
2.350546568632125854e-01
2.460649162530899048e-01
2.445513606071472168e-01
2.309464365243911743e-01
2.142242938280105591e-01
2.047051191329956055e-01
2.061268240213394165e-01
2.129556834697723389e-01
2.152518928050994873e-01
2.071122974157333374e-01
1.916670650243759155e-01
1.781509369611740112e-01
1.742070317268371582e-01
1.796690076589584351e-01
1.863225996494293213e-01
1.847714334726333618e-01
1.720483005046844482e-01
1.542367488145828247e-01
1.418464779853820801e-01
1.418297141790390015e-01
1.518889218568801880e-01
1.622728258371353149e-01
1.633120924234390259e-01
1.528923213481903076e-01
1.378411948680877686e-01
1.282091736793518066e-01
1.290498673915863037e-01
1.364257633686065674e-01
1.410902142524719238e-01
1.364823281764984131e-01
1.245390847325325012e-01
1.136903688311576843e-01
1.121526136994361877e-01
1.209786385297775269e-01
1.326784044504165649e-01
1.366954892873764038e-01
1.272378563880920410e-01
1.070581972599029541e-01
8.425078541040420532e-02
6.568324565887451172e-02
5.188789591193199158e-02
3.828063234686851501e-02
2.203817293047904968e-02
9.221731685101985931e-03
1.484627556055784225e-02
5.570363998413085938e-02
1.402053385972976685e-01
2.629248499870300293e-01
4.071216285228729248e-01
5.534651875495910645e-01
6.880226135253906250e-01
8.041588068008422852e-01
8.990215063095092773e-01
9.674701690673828125e-01
1.000000000000000000e+00
9.860988259315490723e-01
9.208242297172546387e-01
8.088812828063964844e-01
6.642438769340515137e-01
5.063022375106811523e-01
3.540926873683929443e-01
2.219512760639190674e-01
1.184274256229400635e-01
4.747160151600837708e-02
9.260514751076698303e-03
0.000000000000000000e+00
1.127081084996461868e-02
3.096655569970607758e-02
4.672685265541076660e-02
5.177781730890274048e-02
4.828473180532455444e-02
4.502113536000251770e-02
5.008274316787719727e-02
6.435076892375946045e-02
8.086311072111129761e-02
9.027029573917388916e-02
8.877117931842803955e-02
8.111636340618133545e-02
7.645891606807708740e-02
8.125326782464981079e-02
9.405542165040969849e-02
1.067031770944595337e-01
1.109757125377655029e-01
1.051457375288009644e-01
9.534604847431182861e-02
9.066862612962722778e-02
9.612141549587249756e-02
1.086813956499099731e-01
1.197254881262779236e-01
1.218948513269424438e-01
1.149518340826034546e-01
1.058019846677780151e-01
1.028957441449165344e-01
1.094281822443008423e-01
1.207369044423103333e-01
1.278478801250457764e-01
1.251483857631683350e-01
1.149623319506645203e-01
1.053543761372566223e-01
1.036824807524681091e-01
1.105142533779144287e-01
1.191618219017982483e-01
1.213371679186820984e-01
1.143366992473602295e-01
1.031624078750610352e-01
9.652178734540939331e-02
9.974557906389236450e-02
1.102882623672485352e-01
1.197028905153274536e-01
1.205061003565788269e-01
1.123137250542640686e-01
1.020744517445564270e-01
9.835901856422424316e-02
1.042155250906944275e-01
1.146562993526458740e-01
1.205956265330314636e-01
1.165812984108924866e-01
1.052043437957763672e-01
9.488269686698913574e-02
9.325410425662994385e-02
1.009920239448547363e-01
1.112748906016349792e-01
1.153567209839820862e-01
1.097256168723106384e-01
9.889410436153411865e-02
9.154663980007171631e-02
9.345793724060058594e-02
1.023514717817306519e-01
1.093514934182167053e-01
1.064945310354232788e-01
9.365972131490707397e-02
7.913056015968322754e-02
7.320012897253036499e-02
8.017317950725555420e-02
9.495034813880920410e-02
1.068928614258766174e-01
1.085503175854682922e-01
1.012678816914558411e-01
9.349336475133895874e-02
9.370171278715133667e-02
1.035534515976905823e-01
1.166625097393989563e-01
1.239675506949424744e-01
1.213470771908760071e-01
1.131533831357955933e-01
1.085406988859176636e-01
1.140188574790954590e-01
1.277401298284530640e-01
1.406847387552261353e-01
1.438693106174468994e-01
1.358033418655395508e-01
1.238513439893722534e-01
1.182862892746925354e-01
1.241530105471611023e-01
1.370127499103546143e-01
1.465241909027099609e-01
1.449918299913406372e-01
1.337211579084396362e-01
1.216983124613761902e-01
1.183451935648918152e-01
1.258760839700698853e-01
1.377935111522674561e-01
1.443320810794830322e-01
1.407767385244369507e-01
1.311514228582382202e-01
1.246615573763847351e-01
1.281775385141372681e-01
1.403385996818542480e-01
1.525308787822723389e-01
1.558052599430084229e-01
1.482529491186141968e-01
1.365959048271179199e-01
1.306956559419631958e-01
1.357781141996383667e-01
1.481166183948516846e-01
1.580120921134948730e-01
1.581039577722549438e-01
1.494518667459487915e-01
1.407162249088287354e-01
1.409372687339782715e-01
1.520431786775588989e-01
1.670836508274078369e-01
1.162331923842430115e-01
1.361472606658935547e-01
1.569531261920928955e-01
1.806003898382186890e-01
2.042570710182189941e-01
2.206828743219375610e-01
2.233448028564453125e-01
2.123876214027404785e-01
1.963493227958679199e-01
1.873558610677719116e-01
1.930570006370544434e-01
2.108089029788970947e-01
2.298104315996170044e-01
2.395146787166595459e-01
2.373457551002502441e-01
2.299421578645706177e-01
2.273152470588684082e-01
2.345820814371109009e-01
2.475830465555191040e-01
2.564290761947631836e-01
2.541895210742950439e-01
2.425984889268875122e-01
2.305166572332382202e-01
2.266131043434143066e-01
2.319908142089843750e-01
2.390175759792327881e-01
2.375760823488235474e-01
2.235980629920959473e-01
2.026899755001068115e-01
1.856516748666763306e-01
1.803300231695175171e-01
1.854108273983001709e-01
1.916326135396957397e-01
1.894624382257461548e-01
1.770687848329544067e-01
1.615090519189834595e-01
1.528332233428955078e-01
1.558237671852111816e-01
1.659437716007232666e-01
1.730065047740936279e-01
1.695490032434463501e-01
1.569641232490539551e-01
1.438628286123275757e-01
1.388941258192062378e-01
1.435164660215377808e-01
1.508856862783432007e-01
1.517845541238784790e-01
1.428144872188568115e-01
1.295026391744613647e-01
1.218289881944656372e-01
1.260258406400680542e-01
1.391839683055877686e-01
1.509990394115447998e-01
1.516076028347015381e-01
1.389482915401458740e-01
1.192570254206657410e-01
1.013084053993225098e-01
8.949631452560424805e-02
8.110685646533966064e-02
7.072480022907257080e-02
5.818842723965644836e-02
5.340436846017837524e-02
7.330084592103958130e-02
1.328990608453750610e-01
2.359637618064880371e-01
3.714446723461151123e-01
5.187739133834838867e-01
6.578729748725891113e-01
7.770040631294250488e-01
8.732005953788757324e-01
9.463937282562255859e-01
9.921636581420898438e-01
1.000000000000000000e+00
9.591337442398071289e-01
8.667920827865600586e-01
7.326167225837707520e-01
5.763291716575622559e-01
4.202095866203308105e-01
2.813457548618316650e-01
1.682998538017272949e-01
8.358854055404663086e-02
2.782008796930313110e-02
8.638628059998154640e-04
0.000000000000000000e+00
1.709182746708393097e-02
3.912299871444702148e-02
5.320119857788085938e-02
5.379155278205871582e-02
4.614412039518356323e-02
4.168868064880371094e-02
4.941979795694351196e-02
6.884383410215377808e-02
9.033112972974777222e-02
1.028759777545928955e-01
1.026699841022491455e-01
9.566566348075866699e-02
9.215352684259414673e-02
9.820386767387390137e-02
1.106114909052848816e-01
1.197638511657714844e-01
1.181276664137840271e-01
1.069370135664939880e-01
9.547395259141921997e-02
9.376177191734313965e-02
1.045478060841560364e-01
1.208918020129203796e-01
1.315596103668212891e-01
1.300554722547531128e-01
1.196844056248664856e-01
1.104719117283821106e-01
1.111870855093002319e-01
1.221430078148841858e-01
1.349574476480484009e-01
1.393769234418869019e-01
1.318320184946060181e-01
1.181766465306282043e-01
1.088542491197586060e-01
1.108897104859352112e-01
1.224016025662422180e-01
1.342967450618743896e-01
1.377806216478347778e-01
1.314610093832015991e-01
1.219863146543502808e-01
1.182752549648284912e-01
1.240396723151206970e-01
1.345182955265045166e-01
1.404036134481430054e-01
1.359767466783523560e-01
1.241396889090538025e-01
1.143881827592849731e-01
1.151730716228485107e-01
1.268834173679351807e-01
1.413769125938415527e-01
1.482727378606796265e-01
1.433894485235214233e-01
1.319323480129241943e-01
1.238903626799583435e-01
1.258933246135711670e-01
1.355883032083511353e-01
1.434808224439620972e-01
1.409228444099426270e-01
1.274649798870086670e-01
1.113875880837440491e-01
1.031807363033294678e-01
1.073841750621795654e-01
1.186738982796669006e-01
1.260183006525039673e-01
1.217741966247558594e-01
1.079366877675056458e-01
9.453818202018737793e-02
9.174263477325439453e-02
1.016368642449378967e-01
1.162916049361228943e-01
1.242406442761421204e-01
1.197852045297622681e-01
1.074604839086532593e-01
9.798012673854827881e-02
9.990961104631423950e-02
1.127926558256149292e-01
1.277218461036682129e-01
1.346930414438247681e-01
1.305817663669586182e-01
1.212749034166336060e-01
1.166393756866455078e-01
1.225787103176116943e-01
1.362022161483764648e-01
1.480738073587417603e-01
1.500246375799179077e-01
1.422258615493774414e-01
1.326768845319747925e-01
1.307138055562973022e-01
1.389782875776290894e-01
1.510607451200485229e-01
1.567372381687164307e-01
1.506982147693634033e-01
1.372725367546081543e-01
1.267353594303131104e-01
1.272906959056854248e-01
1.383412927389144897e-01
1.510569751262664795e-01
1.556612551212310791e-01
1.493462026119232178e-01
1.381575912237167358e-01
1.317652910947799683e-01
1.356790512800216675e-01
1.466877311468124390e-01
1.554301381111145020e-01
1.544805616140365601e-01
1.447423994541168213e-01
1.348103284835815430e-01
1.340461671352386475e-01
1.448833942413330078e-01
1.604732722043991089e-01
1.700027585029602051e-01
1.676934808492660522e-01
1.576072275638580322e-01
1.500728428363800049e-01
1.533571630716323853e-01
1.668650954961776733e-01
1.815110445022583008e-01
1.904617547988891602e-01
1.825070381164550781e-01
1.753876358270645142e-01
1.770598590373992920e-01
1.881441175937652588e-01
2.009510993957519531e-01
2.052937299013137817e-01
1.968097239732742310e-01
1.809662133455276489e-01
1.692272424697875977e-01
1.709284335374832153e-01
1.862016320228576660e-01
2.060987800359725952e-01
2.195732891559600830e-01
2.218120545148849487e-01
2.169661968946456909e-01
2.140313833951950073e-01
2.189744412899017334e-01
2.295813709497451782e-01
2.373866438865661621e-01
2.350915521383285522e-01
2.229379862546920776e-01
2.086699157953262329e-01
2.014448642730712891e-01
2.044435739517211914e-01
2.122155129909515381e-01
2.149735093116760254e-01
2.068230509757995605e-01
1.905317604541778564e-01
1.752974092960357666e-01
1.695441901683807373e-01
1.740336567163467407e-01
1.811219155788421631e-01
1.810753494501113892e-01
1.702687591314315796e-01
1.539971083402633667e-01
1.420983523130416870e-01
1.410773396492004395e-01
1.488049030303955078e-01
1.562844812870025635e-01
1.552022099494934082e-01
1.447052955627441406e-01
1.318770647048950195e-01
1.257863789796829224e-01
1.303566098213195801e-01
1.411145925521850586e-01
1.486983746290206909e-01
1.465494036674499512e-01
1.362017989158630371e-01
1.257904618978500366e-01
1.233382076025009155e-01
1.300651282072067261e-01
1.391584426164627075e-01
1.412605643272399902e-01
1.321008801460266113e-01
1.156167611479759216e-01
1.001140624284744263e-01
9.108346700668334961e-02
8.647321909666061401e-02
7.901881635189056396e-02
6.392460316419601440e-02
4.592293873429298401e-02
3.948299586772918701e-02
6.198023632168769836e-02
1.242077201604843140e-01
2.243050485849380493e-01
3.495525419712066650e-01
4.842410385608673096e-01
6.166089773178100586e-01
7.403234839439392090e-01
8.505760431289672852e-01
9.390681385993957520e-01
9.929975867271423340e-01
1.000000000000000000e+00
9.553111195564270020e-01
8.645779490470886230e-01
7.406692504882812500e-01
5.983200073242187500e-01
4.504718184471130371e-01
3.081578016281127930e-01
1.823389530181884766e-01
8.442800492048263550e-02
2.318616211414337158e-02
0.000000000000000000e+00
6.515327841043472290e-03
2.675939723849296570e-02
4.412234947085380554e-02
4.929942637681961060e-02
4.427151381969451904e-02
3.908716514706611633e-02
4.358652606606483459e-02
5.961748212575912476e-02
7.953833788633346558e-02
9.234910458326339722e-02
9.267042577266693115e-02
8.487781882286071777e-02
7.910889387130737305e-02
8.316905796527862549e-02
9.630041569471359253e-02
1.098693758249282837e-01
1.145474389195442200e-01
1.081641018390655518e-01
9.736537188291549683e-02
9.236714988946914673e-02
9.872735291719436646e-02
1.128474101424217224e-01
1.248023360967636108e-01
1.264921873807907104e-01
1.185220330953598022e-01
1.095071583986282349e-01
1.090622916817665100e-01
1.196796894073486328e-01
1.343543529510498047e-01
1.419938653707504272e-01
1.367370486259460449e-01
1.228904277086257935e-01
1.115886121988296509e-01
1.120489090681076050e-01
1.242021918296813965e-01
1.386200040578842163e-01
1.442419439554214478e-01
1.373229324817657471e-01
1.242339164018630981e-01
1.160757467150688171e-01
1.196412742137908936e-01
1.321363896131515503e-01
1.434834599494934082e-01
1.448575109243392944e-01
1.359170079231262207e-01
1.248209699988365173e-01
1.213069632649421692e-01
1.287278980016708374e-01
1.412819474935531616e-01
1.487843841314315796e-01
1.451495885848999023e-01
1.332924515008926392e-01
1.224413290619850159e-01
1.208016946911811829e-01
1.289195567369461060e-01
1.393759995698928833e-01
1.428444683551788330e-01
1.356815397739410400e-01
1.226616576313972473e-01
1.129805669188499451e-01
1.130080670118331909e-01
1.210934743285179138e-01
1.290353834629058838e-01
1.289581209421157837e-01
1.198664009571075439e-01
1.082693189382553101e-01
1.028694435954093933e-01
1.074338555335998535e-01
1.175483241677284241e-01
1.242510899901390076e-01
1.215910241007804871e-01
1.117104142904281616e-01
1.031612232327461243e-01
1.039915904402732849e-01
1.151082962751388550e-01
1.290845721960067749e-01
1.359781324863433838e-01
1.316571831703186035e-01
1.211126819252967834e-01
1.141984686255455017e-01
1.175734996795654297e-01
1.291483193635940552e-01
1.399357020854949951e-01
1.417346894741058350e-01
1.340555846691131592e-01
1.241813823580741882e-01
1.211525574326515198e-01
1.283029615879058838e-01
1.405573785305023193e-01
1.486451178789138794e-01
1.468183249235153198e-01
1.376059800386428833e-01
1.294863671064376831e-01
1.300189942121505737e-01
1.396133601665496826e-01
1.509946286678314209e-01
1.548464000225067139e-01
1.475909203290939331e-01
1.342930793762207031e-01
1.245377734303474426e-01
1.250917911529541016e-01
1.345736533403396606e-01
1.445733010768890381e-01
1.465994566679000854e-01
1.390807330608367920e-01
1.287478357553482056e-01
1.251459270715713501e-01
1.329322755336761475e-01
1.477796733379364014e-01
1.597104519605636597e-01
1.612627655267715454e-01
1.535520851612091064e-01
1.450816243886947632e-01
1.447914540767669678e-01
1.546669602394104004e-01
1.680739521980285645e-01
1.750823855400085449e-01
1.851921081542968750e-01
1.990043669939041138e-01
2.074765413999557495e-01
2.075403928756713867e-01
2.041343152523040771e-01
2.056493312120437622e-01
2.164054512977600098e-01
2.325474023818969727e-01
2.445409446954727173e-01
2.450939267873764038e-01
2.354349493980407715e-01
2.243123948574066162e-01
2.209624648094177246e-01
2.273474633693695068e-01
2.361596673727035522e-01
2.366796135902404785e-01
2.236911654472351074e-01
2.018395364284515381e-01
1.821628510951995850e-01
1.738573759794235229e-01
1.773494929075241089e-01
1.844238191843032837e-01
1.851413100957870483e-01
1.760232001543045044e-01
1.624750047922134399e-01
1.538406759500503540e-01
1.554933041334152222e-01
1.640725880861282349e-01
1.698706448078155518e-01
1.650810390710830688e-01
1.505036354064941406e-01
1.350151598453521729e-01
1.285353153944015503e-01
1.342190355062484741e-01
1.457808613777160645e-01
1.523844748735427856e-01
1.473268717527389526e-01
1.333337426185607910e-01
1.202100291848182678e-01
1.169019341468811035e-01
1.244517043232917786e-01
1.352057754993438721e-01
1.390674710273742676e-01
1.316971480846405029e-01
1.178238689899444580e-01
1.066629365086555481e-01
1.037643775343894958e-01
1.056524515151977539e-01
1.021035686135292053e-01
8.467385917901992798e-02
5.461002513766288757e-02
2.365586720407009125e-02
8.021750487387180328e-03
1.977482251822948456e-02
6.196682155132293701e-02
1.310174167156219482e-01
2.226822525262832642e-01
3.359055519104003906e-01
4.701398313045501709e-01
6.191580295562744141e-01
7.669957280158996582e-01
8.909538984298706055e-01
9.711804986000061035e-01
1.000000000000000000e+00
9.834743142127990723e-01
9.338226318359375000e-01
8.588621616363525391e-01
7.574938535690307617e-01
6.254505515098571777e-01
4.667548239231109619e-01
3.004006743431091309e-01
1.549247652292251587e-01
5.474653840065002441e-02
7.233493961393833160e-03
0.000000000000000000e+00
9.869874455034732819e-03
1.727668382227420807e-02
1.583762839436531067e-02
1.122179999947547913e-02
1.278620306402444839e-02
2.464716322720050812e-02
4.212767630815505981e-02
5.602234601974487305e-02
6.064807996153831482e-02
5.844923481345176697e-02
5.752666667103767395e-02
6.454658508300781250e-02
7.857415080070495605e-02
9.127007424831390381e-02
9.391321986913681030e-02
8.503480255603790283e-02
7.220707833766937256e-02
6.638637185096740723e-02
7.335785031318664551e-02
8.899951726198196411e-02
1.025082319974899292e-01
1.050971150398254395e-01
9.710682183504104614e-02
8.726006746292114258e-02
8.526206016540527344e-02
9.389198571443557739e-02
1.067780628800392151e-01
1.138454750180244446e-01
1.099870726466178894e-01
9.937424212694168091e-02
9.185198694467544556e-02
9.494902938604354858e-02
1.076142862439155579e-01
1.207337528467178345e-01
1.245762631297111511e-01
1.168305277824401855e-01
1.043936312198638916e-01
9.797812253236770630e-02
1.034800261259078979e-01
1.172193139791488647e-01
1.288671642541885376e-01
1.299048662185668945e-01
1.204122826457023621e-01
1.087447702884674072e-01
1.046480983495712280e-01
1.113290935754776001e-01
1.230239719152450562e-01
1.298331469297409058e-01
1.259900033473968506e-01
1.146930232644081116e-01
1.052347347140312195e-01
1.055099591612815857e-01
1.154438480734825134e-01
1.267230510711669922e-01
1.295391917228698730e-01
1.208196207880973816e-01
1.070045381784439087e-01
9.870881587266921997e-02
1.023822575807571411e-01
1.147697716951370239e-01
1.252888739109039307e-01
1.245569214224815369e-01
1.118186861276626587e-01
9.537272155284881592e-02
8.592826873064041138e-02
8.837938308715820312e-02
9.820475429296493530e-02
1.054483130574226379e-01
1.032831221818923950e-01
9.359411150217056274e-02
8.520528674125671387e-02
8.666777610778808594e-02
9.897381812334060669e-02
1.145292967557907104e-01
1.230724155902862549e-01
1.200102940201759338e-01
1.100551784038543701e-01
1.031632795929908752e-01
1.065240651369094849e-01
1.185375824570655823e-01
1.303177028894424438e-01
1.331245750188827515e-01
1.257515698671340942e-01
1.155762746930122375e-01
1.123839244246482849e-01
1.203393116593360901e-01
1.342497020959854126e-01
1.434944123029708862e-01
1.408916860818862915e-01
1.287152469158172607e-01
1.167504787445068359e-01
1.147229075431823730e-01
1.243809312582015991e-01
1.379857510328292847e-01
1.444761157035827637e-01
1.386854499578475952e-01
1.253574490547180176e-01
1.151473894715309143e-01
1.161062866449356079e-01
1.270718872547149658e-01
1.387974321842193604e-01
1.417725831270217896e-01
1.341441720724105835e-01
1.232045218348503113e-01
1.192011162638664246e-01
1.268841028213500977e-01
1.413803398609161377e-01
1.520139425992965698e-01
1.512447148561477661e-01
1.408567726612091064e-01
1.304059326648712158e-01
1.295656263828277588e-01
1.403110325336456299e-01
1.552633792161941528e-01
1.635612994432449341e-01
1.598829776048660278e-01
1.486124247312545776e-01
1.400573551654815674e-01
1.422228515148162842e-01
1.542467474937438965e-01
1.670521497726440430e-01
1.707737147808074951e-01
1.628107875585556030e-01
1.498706042766571045e-01
1.859630644321441650e-01
1.788624674081802368e-01
1.720869541168212891e-01
1.730057001113891602e-01
1.820430010557174683e-01
1.918805837631225586e-01
1.934287101030349731e-01
1.837007254362106323e-01
1.689390838146209717e-01
1.602622717618942261e-01
1.654070466756820679e-01
1.824358701705932617e-01
2.010497748851776123e-01
2.103580236434936523e-01
2.069989889860153198e-01
1.972084492444992065e-01
1.913087666034698486e-01
1.952468305826187134e-01
2.060136795043945312e-01
2.143142074346542358e-01
2.124227583408355713e-01
2.006206363439559937e-01
1.867680549621582031e-01
1.799241602420806885e-01
1.830205619335174561e-01
1.904996335506439209e-01
1.928664445877075195e-01
1.845803111791610718e-01
1.684947162866592407e-01
1.534148007631301880e-01
1.471858918666839600e-01
1.503653228282928467e-01
1.557762175798416138e-01
1.546703726053237915e-01
1.442241668701171875e-01
1.298210769891738892e-01
1.206095442175865173e-01
1.221227943897247314e-01
1.315283477306365967e-01
1.398763507604598999e-01
1.395040899515151978e-01
1.302477270364761353e-01
1.190612837672233582e-01
1.140993088483810425e-01
1.178768351674079895e-01
1.251976042985916138e-01
1.275821328163146973e-01
1.206361129879951477e-01
1.080252677202224731e-01
9.854651987552642822e-02
9.905840456485748291e-02
1.086380481719970703e-01
1.190915927290916443e-01
1.211434379220008850e-01
1.114443764090538025e-01
9.448225796222686768e-02
7.813886553049087524e-02
6.696266680955886841e-02
5.869741737842559814e-02
4.727517068386077881e-02
3.024662658572196960e-02
1.455254014581441879e-02
1.544139441102743149e-02
4.902713745832443237e-02
1.232628226280212402e-01
2.334120422601699829e-01
3.654347062110900879e-01
5.040993690490722656e-01
6.387423276901245117e-01
7.632546424865722656e-01
8.719627261161804199e-01
9.552539587020874023e-01
1.000000000000000000e+00
9.951503872871398926e-01
9.382883906364440918e-01
8.371483683586120605e-01
7.058894634246826172e-01
5.599406361579895020e-01
4.125267863273620605e-01
2.745603024959564209e-01
1.563238054513931274e-01
6.793593615293502808e-02
1.613719947636127472e-02
0.000000000000000000e+00
9.337600320577621460e-03
2.802608534693717957e-02
4.110854864120483398e-02
4.203462973237037659e-02
3.489515557885169983e-02
2.999974600970745087e-02
3.549547120928764343e-02
5.096675828099250793e-02
6.783463805913925171e-02
7.614001631736755371e-02
7.259359210729598999e-02
6.305506080389022827e-02
5.768747627735137939e-02
6.296123564243316650e-02
7.667750865221023560e-02
8.975457400083541870e-02
9.353500604629516602e-02
8.670675754547119141e-02
7.614776492118835449e-02
7.135739177465438843e-02
7.700949162244796753e-02
8.918594568967819214e-02
9.862124919891357422e-02
9.846819192171096802e-02
8.986403793096542358e-02
8.089454472064971924e-02
7.996251434087753296e-02
8.879957348108291626e-02
1.008798480033874512e-01
1.068438664078712463e-01
1.023183688521385193e-01
9.147166460752487183e-02
8.346215635538101196e-02
8.510632067918777466e-02
9.543822705745697021e-02
1.064862757921218872e-01
1.097956448793411255e-01
1.033187583088874817e-01
9.286922961473464966e-02
8.735094964504241943e-02
9.174691885709762573e-02
1.029087230563163757e-01
1.122088208794593811e-01
1.126476451754570007e-01
1.046810299158096313e-01
9.572385996580123901e-02
9.414666891098022461e-02
1.022727042436599731e-01
1.142981722950935364e-01
1.211532652378082275e-01
1.180802658200263977e-01
1.084639579057693481e-01
1.008611619472503662e-01
1.020521149039268494e-01
1.113725528120994568e-01
1.211219877004623413e-01
1.229399666190147400e-01
1.148698478937149048e-01
1.028604283928871155e-01
9.591732174158096313e-02
9.880128502845764160e-02
1.080570966005325317e-01
1.147756054997444153e-01
1.120745837688446045e-01
1.009630113840103149e-01
8.936349302530288696e-02
8.572062104940414429e-02
9.225977957248687744e-02
1.031133979558944702e-01
1.092164963483810425e-01
1.058145537972450256e-01
9.628085792064666748e-02
8.910582214593887329e-02
9.099312871694564819e-02
1.012151539325714111e-01
1.120142489671707153e-01
1.150020062923431396e-01
1.082140281796455383e-01
9.777542948722839355e-02
9.293247014284133911e-02
9.864310920238494873e-02
1.114643067121505737e-01
1.222048625349998474e-01
1.234050840139389038e-01
1.153770312666893005e-01
1.055354252457618713e-01
1.022929027676582336e-01
1.083023175597190857e-01
1.183055564761161804e-01
1.235137134790420532e-01
1.190457865595817566e-01
1.080792397260665894e-01
9.927041828632354736e-02
9.996359050273895264e-02
1.100933104753494263e-01
1.220699325203895569e-01
1.266085803508758545e-01
1.202251091599464417e-01
1.079874932765960693e-01
9.928480535745620728e-02
1.004608124494552612e-01
1.097209155559539795e-01
1.187310963869094849e-01
1.196723952889442444e-01
1.118137314915657043e-01
1.019288077950477600e-01
9.863895922899246216e-02
1.052307039499282837e-01
1.167672574520111084e-01
1.240866333246231079e-01
1.215652376413345337e-01
1.117644608020782471e-01
1.034326553344726562e-01
1.045551002025604248e-01
1.157791838049888611e-01
1.298493146896362305e-01
2.038370370864868164e-01
1.977457553148269653e-01
1.897277086973190308e-01
1.884112954139709473e-01
1.966708600521087646e-01
2.089990824460983276e-01
2.159074991941452026e-01
2.120492756366729736e-01
2.010876983404159546e-01
1.930247396230697632e-01
1.965711861848831177e-01
2.121542692184448242e-01
2.313285320997238159e-01
2.432155758142471313e-01
2.428670823574066162e-01
2.347079515457153320e-01
2.284473478794097900e-01
2.309991717338562012e-01
2.406751364469528198e-01
2.487151771783828735e-01
2.467017918825149536e-01
2.338078320026397705e-01
2.175094336271286011e-01
2.076156139373779297e-01
2.082839012145996094e-01
2.144414931535720825e-01
2.159642428159713745e-01
2.061470299959182739e-01
1.874840259552001953e-01
1.696974635124206543e-01
1.623598635196685791e-01
1.673013120889663696e-01
1.770584434270858765e-01
1.808990687131881714e-01
1.735914945602416992e-01
1.594131290912628174e-01
1.483198553323745728e-01
1.477010250091552734e-01
1.561863422393798828e-01
1.646866798400878906e-01
1.639012694358825684e-01
1.521431803703308105e-01
1.366556882858276367e-01
1.277989745140075684e-01
1.309042423963546753e-01
1.419875025749206543e-01
1.509381234645843506e-01
1.497476398944854736e-01
1.389441341161727905e-01
1.269524097442626953e-01
1.232111677527427673e-01
1.304116249084472656e-01
1.420032829046249390e-01
1.472636312246322632e-01
1.396235078573226929e-01
1.213859096169471741e-01
1.008193567395210266e-01
8.536174893379211426e-02
7.596175372600555420e-02
6.804566085338592529e-02
5.833555757999420166e-02
5.203445255756378174e-02
6.345421075820922852e-02
1.094404608011245728e-01
1.993847191333770752e-01
3.282088041305541992e-01
4.777343273162841797e-01
6.253880262374877930e-01
7.542625069618225098e-01
8.573033809661865234e-01
9.342556595802307129e-01
9.840534329414367676e-01
1.000000000000000000e+00
9.717992544174194336e-01
8.933865427970886230e-01
7.697278261184692383e-01
6.175504922866821289e-01
4.595857858657836914e-01
3.158217370510101318e-01
1.975703686475753784e-01
1.077016741037368774e-01
4.549394175410270691e-02
1.010015606880187988e-02
0.000000000000000000e+00
9.959821589291095734e-03
2.941309846937656403e-02
4.549712687730789185e-02
4.994399473071098328e-02
4.445303976535797119e-02
3.883145749568939209e-02
4.329986497759819031e-02
6.040902063250541687e-02
8.280158787965774536e-02
9.878184646368026733e-02
1.014626249670982361e-01
9.379761666059494019e-02
8.599834144115447998e-02
8.736694604158401489e-02
9.903490543365478516e-02
1.133352443575859070e-01
1.201715916395187378e-01
1.154219061136245728e-01
1.041044071316719055e-01
9.610138088464736938e-02
9.832746535539627075e-02
1.092053055763244629e-01
1.199616193771362305e-01
1.221230775117874146e-01
1.145853623747825623e-01
1.044742837548255920e-01
1.012983173131942749e-01
1.091732978820800781e-01
1.230750828981399536e-01
1.328818202018737793e-01
1.318051218986511230e-01
1.220898553729057312e-01
1.131648719310760498e-01
1.140018701553344727e-01
1.255173683166503906e-01
1.396582424640655518e-01
1.457248032093048096e-01
1.391522884368896484e-01
1.252439767122268677e-01
1.146918609738349915e-01
1.153226867318153381e-01
1.258221566677093506e-01
1.369811147451400757e-01
1.394538879394531250e-01
1.315910518169403076e-01
1.205602809786796570e-01
1.163255125284194946e-01
1.233894303441047668e-01
1.369528919458389282e-01
1.464950591325759888e-01
1.446095556020736694e-01
1.330916434526443481e-01
1.213428229093551636e-01
1.188639774918556213e-01
1.275392472743988037e-01
1.400200873613357544e-01
1.456164866685867310e-01
1.391264945268630981e-01
1.250050216913223267e-01
1.136436760425567627e-01
1.131680533289909363e-01
1.227912232279777527e-01
1.334443837404251099e-01
1.353615820407867432e-01
1.260278820991516113e-01
1.120732948184013367e-01
1.036274209618568420e-01
1.062277853488922119e-01
1.163896843791007996e-01
1.246481984853744507e-01
1.234748438000679016e-01
1.137720271944999695e-01
1.039045974612236023e-01
1.029032915830612183e-01
1.129805371165275574e-01
1.273767650127410889e-01
1.356876045465469360e-01
1.325526088476181030e-01
1.220220401883125305e-01
1.141727045178413391e-01
1.169637665152549744e-01
1.294156312942504883e-01
1.423517614603042603e-01
1.457795798778533936e-01
1.372249126434326172e-01
1.236585676670074463e-01
1.159786954522132874e-01
1.203700378537178040e-01
1.333569884300231934e-01
1.445895284414291382e-01
1.454169750213623047e-01
1.358787715435028076e-01
1.243892237544059753e-01
1.205962374806404114e-01
1.273967772722244263e-01
1.383532136678695679e-01
1.429907828569412231e-01
1.358399242162704468e-01
1.211939901113510132e-01
1.097658872604370117e-01
1.103566586971282959e-01
1.228925734758377075e-01
1.384977996349334717e-01
1.465190201997756958e-01
1.430341750383377075e-01
1.334910988807678223e-01
1.276647150516510010e-01
1.316971033811569214e-01
1.429147720336914062e-01
1.521095037460327148e-01
1.515959501266479492e-01
1.418826729059219360e-01
1.313971579074859619e-01
1.297720074653625488e-01
1.399697214365005493e-01
1.556822061538696289e-01
1.997185200452804565e-01
1.920150518417358398e-01
1.819332987070083618e-01
1.797555088996887207e-01
1.897971630096435547e-01
2.059744894504547119e-01
2.170953750610351562e-01
2.160914242267608643e-01
2.055343687534332275e-01
1.952187418937683105e-01
1.940105259418487549e-01
2.025144994258880615e-01
2.128520756959915161e-01
2.158506661653518677e-01
2.093226909637451172e-01
2.001759707927703857e-01
1.988913267850875854e-01
2.108855694532394409e-01
2.314381301403045654e-01
2.487549185752868652e-01
2.531047761440277100e-01
2.443181425333023071e-01
2.314726561307907104e-01
2.255877405405044556e-01
2.308194488286972046e-01
2.412976175546646118e-01
2.458463311195373535e-01
2.375507205724716187e-01
2.194861173629760742e-01
2.021395266056060791e-01
1.951003968715667725e-01
1.992892175912857056e-01
2.062214612960815430e-01
2.052045762538909912e-01
1.925662904977798462e-01
1.749285459518432617e-01
1.637567430734634399e-01
1.660455167293548584e-01
1.781497448682785034e-01
1.883126795291900635e-01
1.861103326082229614e-01
1.708908081054687500e-01
1.522106379270553589e-01
1.420591622591018677e-01
1.455371528863906860e-01
1.569217145442962646e-01
1.645039021968841553e-01
1.603164076805114746e-01
1.465216279029846191e-01
1.331842988729476929e-01
1.299475580453872681e-01
1.380309015512466431e-01
1.491557359695434570e-01
1.522338837385177612e-01
1.428113877773284912e-01
1.267198324203491211e-01
1.153594776988029480e-01
1.165005862712860107e-01
1.272317916154861450e-01
1.354907453060150146e-01
1.288087517023086548e-01
1.036316901445388794e-01
6.747433543205261230e-02
3.274009004235267639e-02
9.335419163107872009e-03
0.000000000000000000e+00
6.425199564546346664e-03
3.721876069903373718e-02
1.083982586860656738e-01
2.326425760984420776e-01
4.044720232486724854e-01
5.960669517517089844e-01
7.693488001823425293e-01
8.954023122787475586e-01
9.675628542900085449e-01
9.976605176925659180e-01
1.000000000000000000e+00
9.765182137489318848e-01
9.162201881408691406e-01
8.080773949623107910e-01
6.541420221328735352e-01
4.760490953922271729e-01
3.063406348228454590e-01
1.729460060596466064e-01
8.667088299989700317e-02
4.003765061497688293e-02
1.743070967495441437e-02
7.005737628787755966e-03
5.498826503753662109e-03
1.433374173939228058e-02
3.198393434286117554e-02
5.117065832018852234e-02
6.304034590721130371e-02
6.434086710214614868e-02
6.032145768404006958e-02
6.062211841344833374e-02
7.164039462804794312e-02
9.105347841978073120e-02
1.091244667768478394e-01
1.162482053041458130e-01
1.108335107564926147e-01
1.005800664424896240e-01
9.627979248762130737e-02
1.033938825130462646e-01
1.176240220665931702e-01
1.284079253673553467e-01
1.278185397386550903e-01
1.172696724534034729e-01
1.063499301671981812e-01
1.052983477711677551e-01
1.167986318469047546e-01
1.336165517568588257e-01
1.442438215017318726e-01
1.421144753694534302e-01
1.307880133390426636e-01
1.209110096096992493e-01
1.218025162816047668e-01
1.339285075664520264e-01
1.491238176822662354e-01
1.576451361179351807e-01
1.565569043159484863e-01
1.514508724212646484e-01
1.503361165523529053e-01
1.554369032382965088e-01
1.614033281803131104e-01
1.607268899679183960e-01
1.512986719608306885e-01
1.394764482975006104e-01
1.348984241485595703e-01
1.416100412607192993e-01
1.538730263710021973e-01
1.610570102930068970e-01
1.565974801778793335e-01
1.439565867185592651e-01
1.338497847318649292e-01
1.355997473001480103e-01
1.492341309785842896e-01
1.651576012372970581e-01
1.717805117368698120e-01
1.648582518100738525e-01
1.506254971027374268e-01
1.404532194137573242e-01
1.416913866996765137e-01
1.516917943954467773e-01
1.599987149238586426e-01
1.573068350553512573e-01
1.434464305639266968e-01
1.275857985019683838e-01
1.208812221884727478e-01
1.275807321071624756e-01
1.412478387355804443e-01
1.498192548751831055e-01
1.454238891601562500e-01
1.307331770658493042e-01
1.165454313158988953e-01
1.133803799748420715e-01
1.232820972800254822e-01
1.384670883417129517e-01
1.478277146816253662e-01
1.458892077207565308e-01
1.370696723461151123e-01
1.315700262784957886e-01
1.369596868753433228e-01
1.515034139156341553e-01
1.653438508510589600e-01
1.685115247964859009e-01
1.593224257230758667e-01
1.458988636732101440e-01
1.396592557430267334e-01
1.462761163711547852e-01
1.608912050724029541e-01
1.720941066741943359e-01
1.714287847280502319e-01
1.601733565330505371e-01
1.481080800294876099e-01
1.455747932195663452e-01
1.550308316946029663e-01
1.690385490655899048e-01
1.762505024671554565e-01
1.709436625242233276e-01
1.576341688632965088e-01
1.472280174493789673e-01
1.482262462377548218e-01
1.596551686525344849e-01
1.717726588249206543e-01
1.741232872009277344e-01
1.644714921712875366e-01
1.505587100982666016e-01
1.438028961420059204e-01
1.502619832754135132e-01
1.655175089836120605e-01
1.783063709735870361e-01
1.797756403684616089e-01
1.705287694931030273e-01
1.597957611083984375e-01
1.579176485538482666e-01
1.678773015737533569e-01
1.827922463417053223e-01
1.917098164558410645e-01
1.887853592634201050e-01
