1.858992427587509155e-01
1.918124705553054810e-01
2.016098201274871826e-01
2.064335644245147705e-01
2.021757215261459351e-01
1.943187713623046875e-01
1.934135258197784424e-01
2.052040249109268188e-01
2.242488414049148560e-01
2.379752993583679199e-01
2.365214377641677856e-01
2.210665494203567505e-01
2.028284370899200439e-01
1.941199451684951782e-01
1.983681172132492065e-01
2.075173556804656982e-01
2.090206593275070190e-01
1.967338025569915771e-01
1.760735213756561279e-01
1.595769971609115601e-01
1.569759547710418701e-01
1.672520786523818970e-01
1.794297695159912109e-01
1.813603490591049194e-01
1.696769297122955322e-01
1.521576046943664551e-01
1.411067843437194824e-01
1.436179876327514648e-01
1.556838452816009521e-01
1.654887944459915161e-01
1.631027460098266602e-01
1.487879008054733276e-01
1.323596388101577759e-01
1.252499818801879883e-01
1.313412785530090332e-01
1.437198668718338013e-01
1.504765450954437256e-01
1.447345763444900513e-01
1.304894238710403442e-01
1.191043332219123840e-01
1.201367899775505066e-01
1.332105398178100586e-01
1.478847116231918335e-01
1.518855839967727661e-01
1.414569169282913208e-01
1.244217306375503540e-01
1.138431802392005920e-01
1.172084510326385498e-01
1.297557502985000610e-01
1.373454481363296509e-01
1.274367272853851318e-01
9.925138950347900391e-02
6.480128318071365356e-02
4.126003384590148926e-02
4.079473763704299927e-02
6.553035229444503784e-02
1.113221496343612671e-01
1.759352236986160278e-01
2.634696066379547119e-01
3.803054392337799072e-01
5.258888602256774902e-01
6.854668259620666504e-01
8.323317170143127441e-01
9.396499991416931152e-01
9.939861893653869629e-01
1.000000000000000000e+00
9.724659323692321777e-01
9.223911166191101074e-01
8.478422164916992188e-01
7.382372617721557617e-01
5.890873670578002930e-01
4.145020842552185059e-01
2.454127520322799683e-01
1.144499480724334717e-01
3.851436078548431396e-02
1.101786363869905472e-02
9.147332981228828430e-03
1.045022439211606979e-02
5.760986823588609695e-03
0.000000000000000000e+00
3.075990593060851097e-03
1.913685724139213562e-02
4.220488294959068298e-02
6.068997830152511597e-02
6.720127165317535400e-02
6.429415941238403320e-02
6.180687993764877319e-02
6.860508024692535400e-02
8.489534258842468262e-02
1.018277108669281006e-01
1.088408902287483215e-01
1.028170734643936157e-01
9.086228162050247192e-02
8.458609879016876221e-02
9.083772450685501099e-02
1.059223785996437073e-01
1.185229122638702393e-01
1.192142814397811890e-01
1.084692254662513733e-01
9.635458141565322876e-02
9.430550783872604370e-02
1.057826429605484009e-01
1.231060028076171875e-01
1.335619240999221802e-01
1.299794465303421021e-01
1.166740804910659790e-01
1.057447791099548340e-01
1.073505803942680359e-01
1.212573349475860596e-01
1.369737833738327026e-01
1.423559784889221191e-01
1.338269710540771484e-01
1.192421615123748779e-01
1.112548187375068665e-01
1.173717901110649109e-01
1.337157636880874634e-01
1.481654345989227295e-01
1.503376066684722900e-01
1.401126682758331299e-01
1.274093091487884521e-01
1.241254732012748718e-01
1.346883326768875122e-01
1.524822264909744263e-01
1.650761067867279053e-01
1.644823253154754639e-01
1.535661667585372925e-01
1.434730291366577148e-01
1.446268409490585327e-01
1.581918746232986450e-01
1.750386953353881836e-01
1.829797774553298950e-01
1.768932193517684937e-01
1.628313660621643066e-01
1.530628502368927002e-01
1.563268899917602539e-01
1.706875264644622803e-01
1.850624382495880127e-01
1.882361769676208496e-01
1.779324859380722046e-01
1.625151485204696655e-01
1.539524048566818237e-01
1.582972258329391479e-01
1.706027686595916748e-01
1.790127903223037720e-01
1.748297214508056641e-01
1.598174870014190674e-01
1.445780545473098755e-01
1.400968283414840698e-01
1.487096250057220459e-01
1.619224846363067627e-01
1.673493534326553345e-01
1.590179055929183960e-01
1.422482430934906006e-01
1.292028576135635376e-01
1.294286102056503296e-01
1.419339329004287720e-01
1.558826714754104614e-01
1.593081355094909668e-01
1.490838378667831421e-01
1.333032250404357910e-01
1.245638355612754822e-01
1.299070566892623901e-01
1.449278593063354492e-01
1.573514342308044434e-01
1.572311818599700928e-01
1.451925784349441528e-01
1.314390301704406738e-01
1.273657530546188354e-01
1.361119449138641357e-01
1.499912887811660767e-01
1.567715853452682495e-01
1.499787718057632446e-01
1.343919187784194946e-01
1.220836862921714783e-01
1.228051558136940002e-01
1.361114680767059326e-01
1.514717787504196167e-01
1.564777046442031860e-01
1.471437513828277588e-01
1.309643834829330444e-01
1.207817420363426208e-01
1.247487142682075500e-01
1.397926509380340576e-01
1.540176868438720703e-01
1.565836966037750244e-01
1.464853435754776001e-01
1.329679936170578003e-01
1.280024647712707520e-01
1.365305036306381226e-01
1.524226516485214233e-01
1.635308116674423218e-01
1.619136035442352295e-01
1.502702832221984863e-01
1.394521892070770264e-01
1.397224664688110352e-01
1.521916687488555908e-01
1.685902923345565796e-01
1.783797293901443481e-01
1.777905374765396118e-01
1.722622811794281006e-01
2.145602703094482422e-01
2.009249031543731689e-01
1.920328140258789062e-01
1.951191276311874390e-01
2.067833691835403442e-01
2.158890664577484131e-01
2.134368121623992920e-01
2.006035000085830688e-01
1.882784068584442139e-01
1.885030120611190796e-01
2.046907395124435425e-01
2.283961623907089233e-01
2.455351352691650391e-01
2.473862916231155396e-01
2.369472831487655640e-01
2.257075607776641846e-01
2.241609394550323486e-01
2.332789897918701172e-01
2.440064251422882080e-01
2.450857907533645630e-01
2.327617406845092773e-01
2.139936536550521851e-01
2.005219161510467529e-01
1.995253562927246094e-01
2.075471878051757812e-01
2.133973687887191772e-01
2.076278775930404663e-01
1.905575394630432129e-01
1.720924824476242065e-01
1.638302356004714966e-01
1.698300540447235107e-01
1.831959635019302368e-01
1.913585513830184937e-01
1.861484497785568237e-01
1.701538711786270142e-01
1.541636437177658081e-01
1.487334519624710083e-01
1.558344513177871704e-01
1.674167960882186890e-01
1.718496680259704590e-01
1.636110544204711914e-01
1.477424651384353638e-01
1.355674564838409424e-01
1.357247680425643921e-01
1.468288600444793701e-01
1.585004627704620361e-01
1.598568111658096313e-01
1.486392170190811157e-01
1.330563426017761230e-01
1.250567883253097534e-01
1.306322365999221802e-01
1.449632495641708374e-01
1.560278981924057007e-01
1.540983021259307861e-01
1.389744132757186890e-01
1.190026327967643738e-01
1.037762314081192017e-01
9.642112255096435547e-02
9.190455079078674316e-02
8.321945369243621826e-02
7.112859189510345459e-02
6.843939423561096191e-02
9.493637830018997192e-02
1.658138781785964966e-01
2.810666263103485107e-01
4.239220321178436279e-01
5.699888467788696289e-01
6.999786496162414551e-01
8.068639039993286133e-01
8.927207589149475098e-01
9.592290520668029785e-01
9.997094869613647461e-01
1.000000000000000000e+00
9.479240179061889648e-01
8.431265354156494141e-01
6.998025178909301758e-01
5.410749912261962891e-01
3.891697525978088379e-01
2.579014897346496582e-01
1.521292775869369507e-01
7.279654592275619507e-02
2.157064713537693024e-02
0.000000000000000000e+00
5.379000212997198105e-03
2.730446308851242065e-02
4.997779428958892822e-02
6.011467799544334412e-02
5.515658110380172729e-02
4.450395703315734863e-02
4.160310328006744385e-02
5.366159602999687195e-02
7.608247548341751099e-02
9.612682461738586426e-02
1.031251549720764160e-01
9.671135991811752319e-02
8.650553226470947266e-02
8.431144803762435913e-02
9.474685043096542358e-02
1.117325797677040100e-01
1.234460398554801941e-01
1.220758482813835144e-01
1.102076396346092224e-01
9.854400157928466797e-02
9.752290695905685425e-02
1.088543087244033813e-01
1.241559758782386780e-01
1.317444145679473877e-01
1.263404190540313721e-01
1.132531538605690002e-01
1.038561612367630005e-01
1.065908223390579224e-01
1.200946271419525146e-01
1.341918408870697021e-01
1.384365558624267578e-01
1.307785660028457642e-01
1.190694719552993774e-01
1.144795864820480347e-01
1.223910748958587646e-01
1.376456320285797119e-01
1.487265229225158691e-01
1.472529172897338867e-01
1.351322531700134277e-01
1.229905113577842712e-01
1.217107996344566345e-01
1.336241662502288818e-01
1.504652351140975952e-01
1.600780934095382690e-01
1.563705205917358398e-01
1.441709697246551514e-01
1.348602324724197388e-01
1.373118907213211060e-01
1.506359428167343140e-01
1.649061292409896851e-01
1.694842725992202759e-01
1.620251536369323730e-01
1.500408649444580078e-01
1.447284072637557983e-01
1.519442647695541382e-01
1.672760397195816040e-01
1.793854236602783203e-01
1.791024059057235718e-01
1.668361723423004150e-01
1.519539058208465576e-01
1.454318761825561523e-01
1.512514948844909668e-01
1.632274836301803589e-01
1.700755804777145386e-01
1.649025231599807739e-01
1.509639620780944824e-01
1.387574970722198486e-01
1.375316679477691650e-01
1.474636644124984741e-01
1.591894775629043579e-01
1.614433228969573975e-01
1.506746262311935425e-01
1.341643035411834717e-01
1.242062523961067200e-01
1.284408718347549438e-01
1.435647606849670410e-01
1.578334420919418335e-01
1.605125516653060913e-01
1.504962444305419922e-01
1.366225779056549072e-01
1.302587538957595825e-01
1.361170709133148193e-01
1.484706103801727295e-01
1.558921039104461670e-01
1.510315537452697754e-01
1.369177848100662231e-01
1.243762075901031494e-01
1.234752461314201355e-01
1.352906227111816406e-01
1.507306396961212158e-01
1.577640324831008911e-01
1.511938422918319702e-01
1.368003636598587036e-01
1.263124197721481323e-01
1.279623061418533325e-01
1.398631930351257324e-01
1.515701860189437866e-01
1.528464406728744507e-01
1.421917080879211426e-01
1.279584020376205444e-01
1.214628592133522034e-01
1.278198957443237305e-01
1.416917741298675537e-01
1.516395807266235352e-01
1.495386809110641479e-01
1.374422460794448853e-01
1.256575882434844971e-01
1.246003583073616028e-01
1.362724304199218750e-01
1.524313986301422119e-01
1.611613631248474121e-01
1.566970348358154297e-01
1.440476775169372559e-01
1.347316801548004150e-01
1.377633512020111084e-01
1.522503048181533813e-01
1.679701656103134155e-01
6.734879314899444580e-02
5.993886291980743408e-02
6.567117571830749512e-02
8.117732405662536621e-02
9.454273432493209839e-02
9.524220228195190430e-02
8.310659974813461304e-02
6.859736889600753784e-02
6.451795995235443115e-02
7.570111751556396484e-02
9.485927969217300415e-02
1.082136556506156921e-01
1.065416410565376282e-01
9.258002787828445435e-02
7.844169437885284424e-02
7.607712596654891968e-02
8.768504112958908081e-02
1.041981503367424011e-01
1.127962097525596619e-01
1.078142598271369934e-01
9.515145421028137207e-02
8.722800016403198242e-02
9.284222871065139771e-02
1.096593737602233887e-01
1.259967535734176636e-01
1.303437948226928711e-01
1.209192797541618347e-01
1.068733409047126770e-01
1.007126495242118835e-01
1.082065701484680176e-01
1.237370967864990234e-01
1.347484737634658813e-01
1.323437243700027466e-01
1.186879500746726990e-01
1.051275432109832764e-01
1.029253676533699036e-01
1.141745671629905701e-01
1.297739297151565552e-01
1.365970373153686523e-01
1.279340982437133789e-01
1.091473251581192017e-01
9.341224282979965210e-02
9.246852993965148926e-02
1.095146015286445618e-01
1.374068707227706909e-01
1.625979095697402954e-01
1.734552979469299316e-01
1.670027673244476318e-01
1.500718146562576294e-01
1.349459439516067505e-01
1.320670247077941895e-01
1.425413191318511963e-01
1.569627672433853149e-01
1.628561615943908691e-01
1.542757302522659302e-01
1.367643773555755615e-01
1.220352724194526672e-01
1.184025257825851440e-01
1.231333166360855103e-01
1.238622665405273438e-01
1.086361035704612732e-01
7.667184621095657349e-02
4.119079932570457458e-02
2.249263785779476166e-02
3.666160628199577332e-02
8.792961388826370239e-02
1.695732027292251587e-01
2.721887826919555664e-01
3.906097412109375000e-01
5.232619643211364746e-01
6.657240390777587891e-01
8.045459985733032227e-01
9.182159304618835449e-01
9.861568212509155273e-01
1.000000000000000000e+00
9.675442576408386230e-01
9.053161144256591797e-01
8.261352777481079102e-01
7.314630746841430664e-01
6.151050925254821777e-01
4.750230610370635986e-01
3.228683173656463623e-01
1.827773749828338623e-01
7.900133728981018066e-02
2.236302010715007782e-02
4.928916227072477341e-03
6.743229459971189499e-03
9.208428673446178436e-03
5.373765714466571808e-03
0.000000000000000000e+00
2.034678822383284569e-03
1.533651072531938553e-02
3.451361507177352905e-02
4.937892407178878784e-02
5.381802842020988464e-02
5.110248923301696777e-02
5.107827857136726379e-02
6.197486072778701782e-02
8.288244158029556274e-02
1.036529988050460815e-01
1.127472966909408569e-01
1.067913174629211426e-01
9.358550608158111572e-02
8.614840358495712280e-02
9.269152581691741943e-02
1.100113317370414734e-01
1.259722113609313965e-01
1.292992830276489258e-01
1.190410628914833069e-01
1.051036641001701355e-01
1.002066954970359802e-01
1.097945868968963623e-01
1.273581385612487793e-01
1.395769268274307251e-01
1.372887790203094482e-01
1.231902986764907837e-01
1.094786971807479858e-01
1.081481054425239563e-01
1.212923154234886169e-01
1.393200010061264038e-01
1.487405598163604736e-01
1.433269381523132324e-01
1.290780901908874512e-01
1.190423816442489624e-01
1.228011175990104675e-01
1.385386735200881958e-01
1.544843912124633789e-01
1.585254222154617310e-01
1.483615785837173462e-01
1.327623873949050903e-01
1.250900924205780029e-01
1.319324672222137451e-01
1.484263092279434204e-01
1.629688143730163574e-01
1.673122346401214600e-01
1.632738262414932251e-01
1.598453223705291748e-01
1.636654883623123169e-01
1.721586287021636963e-01
1.763849407434463501e-01
1.696239262819290161e-01
1.546894460916519165e-01
1.426822990179061890e-01
1.435087621212005615e-01
1.565954983234405518e-01
1.713595092296600342e-01
1.751423031091690063e-01
1.639548540115356445e-01
1.456223279237747192e-01
1.333592385053634644e-01
1.353351324796676636e-01
1.479727327823638916e-01
1.589472144842147827e-01
1.574530750513076782e-01
1.433030515909194946e-01
1.268204003572463989e-01
1.206246316432952881e-01
1.294787973165512085e-01
1.461969614028930664e-01
1.573764979839324951e-01
1.542811542749404907e-01
1.399580389261245728e-01
1.263912022113800049e-01
1.248908042907714844e-01
1.366831809282302856e-01
1.519721001386642456e-01
1.580769568681716919e-01
1.502707600593566895e-01
1.356529891490936279e-01
1.269780248403549194e-01
1.322948038578033447e-01
1.480239480733871460e-01
1.616978347301483154e-01
1.621459871530532837e-01
1.486702263355255127e-01
1.314024627208709717e-01
1.232105568051338196e-01
1.296573281288146973e-01
1.446364521980285645e-01
1.551464796066284180e-01
1.521580368280410767e-01
1.379418075084686279e-01
1.240040734410285950e-01
1.219746619462966919e-01
1.339095085859298706e-01
1.505021601915359497e-01
1.585119217634201050e-01
1.517902612686157227e-01
1.361882686614990234e-01
1.245309412479400635e-01
1.263450831174850464e-01
1.400548815727233887e-01
1.544346511363983154e-01
1.579807698726654053e-01
1.484865844249725342e-01
1.347395777702331543e-01
1.290825307369232178e-01
1.374748796224594116e-01
1.545268893241882324e-01
1.675446182489395142e-01
2.039936333894729614e-01
1.942587494850158691e-01
1.836226880550384521e-01
1.824461817741394043e-01
1.930611282587051392e-01
2.074644267559051514e-01
2.137214094400405884e-01
2.059888541698455811e-01
1.897389292716979980e-01
1.775809079408645630e-01
1.797173321247100830e-01
1.957930475473403931e-01
2.153332531452178955e-01
2.261509150266647339e-01
2.240255773067474365e-01
2.154545634984970093e-01
2.115108221769332886e-01
2.185683399438858032e-01
2.326641082763671875e-01
2.426963448524475098e-01
2.396835386753082275e-01
2.243637889623641968e-01
2.066261321306228638e-01
1.977414190769195557e-01
2.014901489019393921e-01
2.111479490995407104e-01
2.148006409406661987e-01
2.053179740905761719e-01
1.863069832324981689e-01
1.691620498895645142e-01
1.640323996543884277e-01
1.716297566890716553e-01
1.826475113630294800e-01
1.853281110525131226e-01
1.752180159091949463e-01
1.586241871118545532e-01
1.472116410732269287e-01
1.485976427793502808e-01
1.600442528724670410e-01
1.705808937549591064e-01
1.700851321220397949e-01
1.575028598308563232e-01
1.415953189134597778e-01
1.338729411363601685e-01
1.393626928329467773e-01
1.524069607257843018e-01
1.612138301134109497e-01
1.576204746961593628e-01
1.438672542572021484e-01
1.306028515100479126e-01
1.282603144645690918e-01
1.384263634681701660e-01
1.522947400808334351e-01
1.579298675060272217e-01
1.501240879297256470e-01
1.343025714159011841e-01
1.212300881743431091e-01
1.177953630685806274e-01
1.206870004534721375e-01
1.189157590270042419e-01
1.035708859562873840e-01
7.725820690393447876e-02
5.507179349660873413e-02
5.677165836095809937e-02
9.599526226520538330e-02
1.732164770364761353e-01
2.776834666728973389e-01
3.958295285701751709e-01
5.189377069473266602e-01
6.436723470687866211e-01
7.667235732078552246e-01
8.783701658248901367e-01
9.617748856544494629e-01
1.000000000000000000e+00
9.855381250381469727e-01
9.240397810935974121e-01
8.291311264038085938e-01
7.136331796646118164e-01
5.844642519950866699e-01
4.451975822448730469e-01
3.027997314929962158e-01
1.720291674137115479e-01
7.165005803108215332e-02
1.462204288691282272e-02
0.000000000000000000e+00
1.246495451778173447e-02
3.031160682439804077e-02
3.758648037910461426e-02
3.218366205692291260e-02
2.412876673042774200e-02
2.624037861824035645e-02
4.341229423880577087e-02
6.857389956712722778e-02
8.843427896499633789e-02
9.434056282043457031e-02
8.891554921865463257e-02
8.318915963172912598e-02
8.734872192144393921e-02
1.021813377737998962e-01
1.186123862862586975e-01
1.254779696464538574e-01
1.191974058747291565e-01
1.069069504737854004e-01
1.006878837943077087e-01
1.078571602702140808e-01
1.248733848333358765e-01
1.399198174476623535e-01
1.425128430128097534e-01
1.320636272430419922e-01
1.181955486536026001e-01
1.129894331097602844e-01
1.213085502386093140e-01
1.367597877979278564e-01
1.469620615243911743e-01
1.439501941204071045e-01
1.307258605957031250e-01
1.186111494898796082e-01
1.182069554924964905e-01
1.308424025774002075e-01
1.475833058357238770e-01
1.565910279750823975e-01
1.529102772474288940e-01
1.422301232814788818e-01
1.357599496841430664e-01
1.411545872688293457e-01
1.559850573539733887e-01
1.695408076047897339e-01
1.716981977224349976e-01
1.615082621574401855e-01
1.480494737625122070e-01
1.432338356971740723e-01
1.522517353296279907e-01
1.691643595695495605e-01
1.815693527460098267e-01
1.808489859104156494e-01
1.692826002836227417e-01
1.580670624971389771e-01
1.583260446786880493e-01
1.719582676887512207e-01
1.899522840976715088e-01
1.994064450263977051e-01
1.939626187086105347e-01
1.787669658660888672e-01
1.660276204347610474e-01
1.653857231140136719e-01
1.762360483407974243e-01
1.882488727569580078e-01
1.900437027215957642e-01
1.788195371627807617e-01
1.626109331846237183e-01
1.536846011877059937e-01
1.586197167634963989e-01
1.727520078420639038e-01
1.837201118469238281e-01
1.817567944526672363e-01
1.676869392395019531e-01
1.520074009895324707e-01
1.463599354028701782e-01
1.541826725006103516e-01
1.679123193025588989e-01
1.754871755838394165e-01
1.704452335834503174e-01
1.573354452848434448e-01
1.476855129003524780e-01
1.507502645254135132e-01
1.656588762998580933e-01
1.817862391471862793e-01
1.870837658643722534e-01
1.778972297906875610e-01
1.618400067090988159e-01
1.516616195440292358e-01
1.553729027509689331e-01
1.699044555425643921e-01
1.836282461881637573e-01
1.858617812395095825e-01
1.755696386098861694e-01
1.616474688053131104e-01
1.554505974054336548e-01
1.614444404840469360e-01
1.735980063676834106e-01
1.803882122039794922e-01
1.747222542762756348e-01
1.600024849176406860e-01
1.473312675952911377e-01
1.466808915138244629e-01
1.587114334106445312e-01
1.738571375608444214e-01
1.798955351114273071e-01
1.719502508640289307e-01
1.563450098037719727e-01
1.454414874315261841e-01
1.478852927684783936e-01
1.616432964801788330e-01
1.756535023450851440e-01
1.790354996919631958e-01
1.701862514019012451e-01
1.578882485628128052e-01
1.539663970470428467e-01
1.636500954627990723e-01
1.811070442199707031e-01
1.730859130620956421e-01
1.853734999895095825e-01
1.911498010158538818e-01
1.867454499006271362e-01
1.785592734813690186e-01
1.774431616067886353e-01
1.894087940454483032e-01
2.099180370569229126e-01
2.267539948225021362e-01
2.295233309268951416e-01
2.180544286966323853e-01
2.023683786392211914e-01
1.948166638612747192e-01
2.002928555011749268e-01
2.123916745185852051e-01
2.186075448989868164e-01
2.108936160802841187e-01
1.923050284385681152e-01
1.743195056915283203e-01
1.678671240806579590e-01
1.745297908782958984e-01
1.853651702404022217e-01
1.882631480693817139e-01
1.779240220785140991e-01
1.600993275642395020e-01
1.466656178236007690e-01
1.461081057786941528e-01
1.564139276742935181e-01
1.665752679109573364e-01
1.656471192836761475e-01
1.518446803092956543e-01
1.339232325553894043e-01
1.240616887807846069e-01
1.281016916036605835e-01
1.408472210168838501e-01
1.502211391925811768e-01
1.472430825233459473e-01
1.334227174520492554e-01
1.192089691758155823e-01
1.156240850687026978e-01
1.252671778202056885e-01
1.400042027235031128e-01
1.474098563194274902e-01
1.410391330718994141e-01
1.256877481937408447e-01
1.133467629551887512e-01
1.137414202094078064e-01
1.259613186120986938e-01
1.384357810020446777e-01
1.375456452369689941e-01
1.180474609136581421e-01
8.680240064859390259e-02
5.752119421958923340e-02
4.146765172481536865e-02
4.148728027939796448e-02
5.441231280565261841e-02
7.958880811929702759e-02
1.249755397439002991e-01
2.040182948112487793e-01
3.253894746303558350e-01
4.824534356594085693e-01
6.513758897781372070e-01
8.012180924415588379e-01
9.095431566238403320e-01
9.718925356864929199e-01
9.982128143310546875e-01
1.000000000000000000e+00
9.777733087539672852e-01
9.196251630783081055e-01
8.123185634613037109e-01
6.568963527679443359e-01
4.754279851913452148e-01
3.024667501449584961e-01
1.680224388837814331e-01
8.339528739452362061e-02
3.961058333516120911e-02
1.839698292315006256e-02
6.169547326862812042e-03
0.000000000000000000e+00
3.414491424337029457e-03
1.757547631859779358e-02
3.644799441099166870e-02
5.019076541066169739e-02
5.330184102058410645e-02
4.953321069478988647e-02
4.876415804028511047e-02
5.896475911140441895e-02
7.896251231431961060e-02
9.877667576074600220e-02
1.071104705333709717e-01
1.006507053971290588e-01
8.692379295825958252e-02
7.848022133111953735e-02
8.346626907587051392e-02
9.911039471626281738e-02
1.140468716621398926e-01
1.176592409610748291e-01
1.087338551878929138e-01
9.626111388206481934e-02
9.203108400106430054e-02
1.011051982641220093e-01
1.175208836793899536e-01
1.288128048181533813e-01
1.264049708843231201e-01
1.126545071601867676e-01
9.888393431901931763e-02
9.651788324117660522e-02
1.077708527445793152e-01
1.238806173205375671e-01
1.321768760681152344e-01
1.266929954290390015e-01
1.129607483744621277e-01
1.031829118728637695e-01
1.064175888895988464e-01
1.210767179727554321e-01
1.362619549036026001e-01
1.406625360250473022e-01
1.319047212600708008e-01
1.182820871472358704e-01
1.118106991052627563e-01
1.187128648161888123e-01
1.343508660793304443e-01
1.469245851039886475e-01
1.473872363567352295e-01
1.367954462766647339e-01
1.252977997064590454e-01
1.238016188144683838e-01
1.349338144063949585e-01
1.506738960742950439e-01
1.589280664920806885e-01
1.536436378955841064e-01
1.398812383413314819e-01
1.295432150363922119e-01
1.317494064569473267e-01
1.453231871128082275e-01
1.595865637063980103e-01
1.630103290081024170e-01
1.526768654584884644e-01
1.364610940217971802e-01
1.265869885683059692e-01
1.300784349441528320e-01
1.430370658636093140e-01
1.539110839366912842e-01
1.530245691537857056e-01
1.405282616615295410e-01
1.260933876037597656e-01
1.211175546050071716e-01
1.294865310192108154e-01
1.441065520048141479e-01
1.526308506727218628e-01
1.476468443870544434e-01
1.329504847526550293e-01
1.201989874243736267e-01
1.197083815932273865e-01
1.319804191589355469e-01
1.471500992774963379e-01
1.529227942228317261e-01
1.447697579860687256e-01
1.294700354337692261e-01
1.194940134882926941e-01
1.232536882162094116e-01
1.381689608097076416e-01
1.526812613010406494e-01
1.556148827075958252e-01
1.453834921121597290e-01
1.310006082057952881e-01
1.247222274541854858e-01
1.320722848176956177e-01
1.472919136285781860e-01
1.578519940376281738e-01
1.549119353294372559e-01
1.406790316104888916e-01
1.263520419597625732e-01
1.230583265423774719e-01
1.327414661645889282e-01
1.466144174337387085e-01
1.524761617183685303e-01
1.450288891792297363e-01
1.301068514585494995e-01
1.197490543127059937e-01
1.225114911794662476e-01
1.363651305437088013e-01
1.503621637821197510e-01
1.537463515996932983e-01
1.448163986206054688e-01
1.321495473384857178e-01
1.275947540998458862e-01
1.367211639881134033e-01
1.540971845388412476e-01
1.674300730228424072e-01
1.675731390714645386e-01
1.560494303703308105e-01
1.436390280723571777e-01
1.418659836053848267e-01
1.538342982530593872e-01
1.716026216745376587e-01
1.825443208217620850e-01
1.797851771116256714e-01
1.676844805479049683e-01
1.578639298677444458e-01
2.478009313344955444e-01
2.472175806760787964e-01
2.340092808008193970e-01
2.190209478139877319e-01
2.147248089313507080e-01
2.251408845186233521e-01
2.422920316457748413e-01
2.524308562278747559e-01
2.471320331096649170e-01
2.300967425107955933e-01
2.138722240924835205e-01
2.101366668939590454e-01
2.207079082727432251e-01
2.365501374006271362e-01
2.455941885709762573e-01
2.429925501346588135e-01
2.347735315561294556e-01
2.322122007608413696e-01
2.419988811016082764e-01
2.599903345108032227e-01
2.739604115486145020e-01
2.735088169574737549e-01
2.587469220161437988e-01
2.402974963188171387e-01
2.310995757579803467e-01
2.361476868391036987e-01
2.484550625085830688e-01
2.546873986721038818e-01
2.461249381303787231e-01
2.258738428354263306e-01
2.060943394899368286e-01
1.984031349420547485e-01
2.045876234769821167e-01
2.153799235820770264e-01
2.182555496692657471e-01
2.079246789216995239e-01
1.905167549848556519e-01
1.780160218477249146e-01
1.784160137176513672e-01
1.889266371726989746e-01
1.981465220451354980e-01
1.955235749483108521e-01
1.803508996963500977e-01
1.622760593891143799e-01
1.537540704011917114e-01
1.599870622158050537e-01
1.745154261589050293e-01
1.840276420116424561e-01
1.791746914386749268e-01
1.622491776943206787e-01
1.451317816972732544e-01
1.399078518152236938e-01
1.490720212459564209e-01
1.635663062334060669e-01
1.701925694942474365e-01
1.625659316778182983e-01
1.461167633533477783e-01
1.330516934394836426e-01
1.318748295307159424e-01
1.397775858640670776e-01
1.448235660791397095e-01
1.358860135078430176e-01
1.126521304249763489e-01
8.723215013742446899e-02
7.647655159235000610e-02
9.186568856239318848e-02
1.362324208021163940e-01
2.075027376413345337e-01
3.045310676097869873e-01
4.279319345951080322e-01
5.740078687667846680e-01
7.279852628707885742e-01
8.647122383117675781e-01
9.593976736068725586e-01
1.000000000000000000e+00
9.925734400749206543e-01
9.538012742996215820e-01
8.970631361007690430e-01
8.225275278091430664e-01
7.202894687652587891e-01
5.838152170181274414e-01
4.226934015750885010e-01
2.630106210708618164e-01
1.346716284751892090e-01
5.499943345785140991e-02
2.032319828867912292e-02
1.172042265534400940e-02
9.285427629947662354e-03
4.223553463816642761e-03
0.000000000000000000e+00
4.407407250255346298e-03
2.017801627516746521e-02
4.113683849573135376e-02
5.681371688842773438e-02
6.133615598082542419e-02
5.843054875731468201e-02
5.831682682037353516e-02
6.939999014139175415e-02
9.074568748474121094e-02
1.120092943310737610e-01
1.212919354438781738e-01
1.149873286485671997e-01
1.008043810725212097e-01
9.201349318027496338e-02
9.718614071607589722e-02
1.131481379270553589e-01
1.280483156442642212e-01
1.310140639543533325e-01
1.216512843966484070e-01
1.097958385944366455e-01
1.061520352959632874e-01
1.125593781471252441e-01
1.214046776294708252e-01
1.234121546149253845e-01
1.167716309428215027e-01
1.092995032668113708e-01
1.111365631222724915e-01
1.245996654033660889e-01
1.411971300840377808e-01
1.489832103252410889e-01
1.427613496780395508e-01
1.289467662572860718e-01
1.199469566345214844e-01
1.243261769413948059e-01
1.396412551403045654e-01
1.543552726507186890e-01
1.573565751314163208e-01
1.472436487674713135e-01
1.332981288433074951e-01
1.278623342514038086e-01
1.364737898111343384e-01
1.532891839742660522e-01
1.657473146915435791e-01
1.648070812225341797e-01
1.523828655481338501e-01
1.396663188934326172e-01
1.381802558898925781e-01
1.504138857126235962e-01
1.675190031528472900e-01
1.763429939746856689e-01
1.701219528913497925e-01
1.542087793350219727e-01
1.416467577219009399e-01
1.428795009851455688e-01
1.570257395505905151e-01
1.724986135959625244e-01
1.765999197959899902e-01
1.660493165254592896e-01
1.493722200393676758e-01
1.396495997905731201e-01
1.438983976840972900e-01
1.570670306682586670e-01
1.664465218782424927e-01
1.624159961938858032e-01
1.466450542211532593e-01
1.304972320795059204e-01
1.259695589542388916e-01
1.359848231077194214e-01
1.518449038267135620e-01
1.601276546716690063e-01
1.538605690002441406e-01
1.381260156631469727e-01
1.256380528211593628e-01
1.265573352575302124e-01
1.402436047792434692e-01
1.557615399360656738e-01
1.607016623020172119e-01
1.515599489212036133e-01
1.363384425640106201e-01
1.277969479560852051e-01
1.332103013992309570e-01
1.483693867921829224e-01
1.608571708202362061e-01
1.601302772760391235e-01
1.463360190391540527e-01
1.300430148839950562e-01
1.237685531377792358e-01
1.320152580738067627e-01
1.475248336791992188e-01
1.571863293647766113e-01
1.528156250715255737e-01
1.377658396959304810e-01
1.238319650292396545e-01
1.216154024004936218e-01
1.318382918834686279e-01
1.447824388742446899e-01
1.484600007534027100e-01
1.387246102094650269e-01
1.226732954382896423e-01
1.128112375736236572e-01
1.170465871691703796e-01
1.320106685161590576e-01
1.457292288541793823e-01
1.474582999944686890e-01
1.366450190544128418e-01
1.231948733329772949e-01
1.193908080458641052e-01
1.298573464155197144e-01
1.476179063320159912e-01
1.596850603818893433e-01
7.590542733669281006e-02
8.164601773023605347e-02
7.443131506443023682e-02
6.189191713929176331e-02
5.597892403602600098e-02
6.321903318166732788e-02
7.915502041578292847e-02
9.180571138858795166e-02
9.164939075708389282e-02
7.967528700828552246e-02
6.640349328517913818e-02
6.346541643142700195e-02
7.419345527887344360e-02
9.084478765726089478e-02
1.008484885096549988e-01
9.727354347705841064e-02
8.430314064025878906e-02
7.372272759675979614e-02
7.560838013887405396e-02
9.020230174064636230e-02
1.076271906495094299e-01
1.157671064138412476e-01
1.101411879062652588e-01
9.732870757579803467e-02
8.940123766660690308e-02
9.425151348114013672e-02
1.091160997748374939e-01
1.228980198502540588e-01
1.256505101919174194e-01
1.169322729110717773e-01
1.059448197484016418e-01
1.038494557142257690e-01
1.144887208938598633e-01
1.308587789535522461e-01
1.406929641962051392e-01
1.366685181856155396e-01
1.225257143378257751e-01
1.099221408367156982e-01
1.092286705970764160e-01
1.209575235843658447e-01
1.352373510599136353e-01
1.397127509117126465e-01
1.298327296972274780e-01
1.125959903001785278e-01
1.006090193986892700e-01
1.020591631531715393e-01
1.140937432646751404e-01
1.254211813211441040e-01
1.256957054138183594e-01
1.139697432518005371e-01
9.894562512636184692e-02
9.061866998672485352e-02
9.219056367874145508e-02
9.919940680265426636e-02
1.045323088765144348e-01
1.049219816923141479e-01
1.027457192540168762e-01
1.014165133237838745e-01
9.998824447393417358e-02
9.445141255855560303e-02
8.511207997798919678e-02
8.219394087791442871e-02
1.044856682419776917e-01
1.692880094051361084e-01
2.804886996746063232e-01
4.238753020763397217e-01
5.737522244453430176e-01
7.067559361457824707e-01
8.124117255210876465e-01
8.927848339080810547e-01
9.534271359443664551e-01
9.929202198982238770e-01
1.000000000000000000e+00
9.606564640998840332e-01
8.692748546600341797e-01
7.349637150764465332e-01
5.786454677581787109e-01
4.240198731422424316e-01
2.879877388477325439e-01
1.773071438074111938e-01
9.247827529907226562e-02
3.375232592225074768e-02
2.933257725089788437e-03
0.000000000000000000e+00
1.809279248118400574e-02
4.291379079222679138e-02
5.876502767205238342e-02
5.833257362246513367e-02
4.759053513407707214e-02
4.078191518783569336e-02
4.955563694238662720e-02
7.380812615156173706e-02
1.016823574900627136e-01
1.187413781881332397e-01
1.191781759262084961e-01
1.096527650952339172e-01
1.032087355852127075e-01
1.088242009282112122e-01
1.241286396980285645e-01
1.377585828304290771e-01
1.391913592815399170e-01
1.278467178344726562e-01
1.135755702853202820e-01
1.087547242641448975e-01
1.182790100574493408e-01
1.355233043432235718e-01
1.476040333509445190e-01
1.459065377712249756e-01
1.331953853368759155e-01
1.210237815976142883e-01
1.204961240291595459e-01
1.332671046257019043e-01
1.500955075025558472e-01
1.582856029272079468e-01
1.522186994552612305e-01
1.377802938222885132e-01
1.273964047431945801e-01
1.301051527261734009e-01
1.442122608423233032e-01
1.586400568485260010e-01
1.622551977634429932e-01
1.531659513711929321e-01
1.401603221893310547e-01
1.354954689741134644e-01
1.449559181928634644e-01
1.629721522331237793e-01
1.768632680177688599e-01
1.772083938121795654e-01
1.656554937362670898e-01
1.533036082983016968e-01
1.517645269632339478e-01
1.636958569288253784e-01
1.805736273527145386e-01
1.896730214357376099e-01
1.847072690725326538e-01
1.709970831871032715e-01
1.608652025461196899e-01
1.637281775474548340e-01
1.782830208539962769e-01
1.935292333364486694e-01
1.978508830070495605e-01
1.886945664882659912e-01
1.744586378335952759e-01
1.675240993499755859e-01
1.742627620697021484e-01
1.896788030862808228e-01
2.013410776853561401e-01
1.997209340333938599e-01
1.859454512596130371e-01
1.705975979566574097e-01
1.652444303035736084e-01
1.729880720376968384e-01
1.859182715415954590e-01
1.916472762823104858e-01
1.836247742176055908e-01
1.666165739297866821e-01
1.527285128831863403e-01
1.519332379102706909e-01
1.639436781406402588e-01
1.783370524644851685e-01
1.829674839973449707e-01
1.739526838064193726e-01
1.585496664047241211e-01
1.489060521125793457e-01
1.524222940206527710e-01
1.656648218631744385e-01
1.771751046180725098e-01
1.769916117191314697e-01
1.650009453296661377e-01
1.507437825202941895e-01
1.454875916242599487e-01
1.529362946748733521e-01
1.660787761211395264e-01
1.728061735630035400e-01
1.660971045494079590e-01
1.501619219779968262e-01
1.369535028934478760e-01
1.366252601146697998e-01
1.491873413324356079e-01
1.641612797975540161e-01
1.688735634088516235e-01
1.587532758712768555e-01
1.409340351819992065e-01
1.283727735280990601e-01
1.296929717063903809e-01
1.423132568597793579e-01
1.546275019645690918e-01
1.557873636484146118e-01
1.446942538022994995e-01
1.309567242860794067e-01
1.270799040794372559e-01
1.382256150245666504e-01
1.576323360204696655e-01
1.718492805957794189e-01
1.715728193521499634e-01
1.591339409351348877e-01
1.460984051227569580e-01
1.440147757530212402e-01
1.550331115722656250e-01
1.703495979309082031e-01
1.652208119630813599e-01
1.811417788267135620e-01
1.941088140010833740e-01
1.959870308637619019e-01
1.890375018119812012e-01
1.836170405149459839e-01
1.892577260732650757e-01
2.060882896184921265e-01
2.240357697010040283e-01
2.305298745632171631e-01
2.210048288106918335e-01
2.027981132268905640e-01
1.893162876367568970e-01
1.896490305662155151e-01
2.012827098369598389e-01
2.122544199228286743e-01
2.109484374523162842e-01
1.957037746906280518e-01
1.758188754320144653e-01
1.639848500490188599e-01
1.661676317453384399e-01
1.768524199724197388e-01
1.836498230695724487e-01
1.777733117341995239e-01
1.611954569816589355e-01
1.446160078048706055e-01
1.386117041110992432e-01
1.449710279703140259e-01
1.552132815122604370e-01
1.577375531196594238e-01
1.477642357349395752e-01
1.312891840934753418e-01
1.199494078755378723e-01
1.215233653783798218e-01
1.333500742912292480e-01
1.443380117416381836e-01
1.441141068935394287e-01
1.316316276788711548e-01
1.160074397921562195e-01
1.091799587011337280e-01
1.163828298449516296e-01
1.317654550075531006e-01
1.429845988750457764e-01
1.412010788917541504e-01
1.283408105373382568e-01
1.151909381151199341e-01
1.124620214104652405e-01
1.215123832225799561e-01
1.323550343513488770e-01
1.310205608606338501e-01
1.107467561960220337e-01
7.782544195652008057e-02
4.756812751293182373e-02
3.475942462682723999e-02
4.575038328766822815e-02
7.844159752130508423e-02
1.294579058885574341e-01
2.010328769683837891e-01
3.004993796348571777e-01
4.324613511562347412e-01
5.893868803977966309e-01
7.489249706268310547e-01
8.820040822029113770e-01
9.670625925064086914e-01
1.000000000000000000e+00
9.918818473815917969e-01
9.567398428916931152e-01
8.987084627151489258e-01
8.096203804016113281e-01
6.797887086868286133e-01
5.135182738304138184e-01
3.350968062877655029e-01
1.789761781692504883e-01
7.181478291749954224e-02
1.892438903450965881e-02
4.400902427732944489e-03
4.524864722043275833e-03
3.519162302836775780e-03
0.000000000000000000e+00
1.429624855518341064e-03
1.381615363061428070e-02
3.457865491509437561e-02
5.391152948141098022e-02
6.292338669300079346e-02
6.118918582797050476e-02
5.690763145685195923e-02
6.016948074102401733e-02
7.453558593988418579e-02
9.372222423553466797e-02
1.065065786242485046e-01
1.059929057955741882e-01
9.553025662899017334e-02
8.599358797073364258e-02
8.729606866836547852e-02
1.001144796609878540e-01
1.153772845864295959e-01
1.217138469219207764e-01
1.151288822293281555e-01
1.023031547665596008e-01
9.503790736198425293e-02
1.005113497376441956e-01
1.152210161089897156e-01
1.276174187660217285e-01
1.276718378067016602e-01
1.154741942882537842e-01
1.011862158775329590e-01
9.699489176273345947e-02
1.072850376367568970e-01
1.250070482492446899e-01
1.371099948883056641e-01
1.350635886192321777e-01
1.216341182589530945e-01
1.083499416708946228e-01
1.064944788813591003e-01
1.180591061711311340e-01
1.342412084341049194e-01
1.427949219942092896e-01
1.380856335163116455e-01
1.255386918783187866e-01
1.168237775564193726e-01
1.203529611229896545e-01
1.341493874788284302e-01
1.473492234945297241e-01
1.495555639266967773e-01
1.397897452116012573e-01
1.272390037775039673e-01
1.237967014312744141e-01
1.342630088329315186e-01
1.521713435649871826e-01
1.648268103599548340e-01
1.637948453426361084e-01
1.516551226377487183e-01
1.396134346723556519e-01
1.385940462350845337e-01
1.502375900745391846e-01
1.656145006418228149e-01
1.722985953092575073e-01
1.646369695663452148e-01
1.483694165945053101e-01
1.357403695583343506e-01
1.357683688402175903e-01
1.470242887735366821e-01
1.586826294660568237e-01
1.596136987209320068e-01
1.477397382259368896e-01
1.314914375543594360e-01
1.228713542222976685e-01
1.278457641601562500e-01
1.414750963449478149e-01
1.519181728363037109e-01
1.502799242734909058e-01
1.378922909498214722e-01
1.248924657702445984e-01
1.220698207616806030e-01
1.319080442190170288e-01
1.462827324867248535e-01
1.529593616724014282e-01
1.458705961704254150e-01
1.303328126668930054e-01
1.185450851917266846e-01
1.200044676661491394e-01
1.336950659751892090e-01
1.487747132778167725e-01
1.534209996461868286e-01
1.445488482713699341e-01
1.300551295280456543e-01
1.222450211644172668e-01
1.278713792562484741e-01
1.425121426582336426e-01
1.539405584335327148e-01
1.521578133106231689e-01
1.377240866422653198e-01
1.212164014577865601e-01
1.147557199001312256e-01
1.220679059624671936e-01
1.355621367692947388e-01
1.424566060304641724e-01
1.356175243854522705e-01
1.195947080850601196e-01
1.067097857594490051e-01
1.072904467582702637e-01
1.212514117360115051e-01
1.381725072860717773e-01
1.455499380826950073e-01
1.391533911228179932e-01
1.260864138603210449e-01
1.187728047370910645e-01
1.248875334858894348e-01
1.407311707735061646e-01
1.542029529809951782e-01
1.550183445215225220e-01
1.432820260524749756e-01
1.293678432703018188e-01
1.255522221326828003e-01
1.361194103956222534e-01
1.539303660392761230e-01
1.661868840456008911e-01
1.649833917617797852e-01
1.535330265760421753e-01
1.430829465389251709e-01
2.145884791389107704e-04
3.882778109982609749e-03
2.196193439885973930e-03
0.000000000000000000e+00
5.434119142591953278e-03
2.124177478253841400e-02
4.149429872632026672e-02
5.649592727422714233e-02
6.099964678287506104e-02
5.873296037316322327e-02
5.923092365264892578e-02
6.968799233436584473e-02
8.847007900476455688e-02
1.054051741957664490e-01
1.104051470756530762e-01
1.012800186872482300e-01
8.760551363229751587e-02
8.489970862865447998e-02
1.031787022948265076e-01
1.394002139568328857e-01
1.800283938646316528e-01
2.111979126930236816e-01
2.284986823797225952e-01
2.378910481929779053e-01
2.481066733598709106e-01
2.610841393470764160e-01
2.699516713619232178e-01
2.660187482833862305e-01
2.482336759567260742e-01
2.262469083070755005e-01
2.122124731540679932e-01
2.120596915483474731e-01
2.204010039567947388e-01
2.252025306224822998e-01
2.180829197168350220e-01
2.014610022306442261e-01
1.863761544227600098e-01
1.834063827991485596e-01
1.937723010778427124e-01
2.079775333404541016e-01
2.132251709699630737e-01
2.039272189140319824e-01
1.862292587757110596e-01
1.728126704692840576e-01
1.727213710546493530e-01
1.839085370302200317e-01
1.950486600399017334e-01
1.948117166757583618e-01
1.813952773809432983e-01
1.637561619281768799e-01
1.542572826147079468e-01
1.589463949203491211e-01
1.726780384778976440e-01
1.833636760711669922e-01
1.819325238466262817e-01
1.696197688579559326e-01
1.565404236316680908e-01
1.534733027219772339e-01
1.625611782073974609e-01
1.747582405805587769e-01
1.762364506721496582e-01
1.592313200235366821e-01
1.282347887754440308e-01
9.682676196098327637e-02
7.832246273756027222e-02
7.883704453706741333e-02
9.695889800786972046e-02
1.325267106294631958e-01
1.939584761857986450e-01
2.947119474411010742e-01
4.394281208515167236e-01
6.120878458023071289e-01
7.793549299240112305e-01
9.072342514991760254e-01
9.788951873779296875e-01
1.000000000000000000e+00
9.872452020645141602e-01
9.503971338272094727e-01
8.837700486183166504e-01
7.754555344581604004e-01
6.244994997978210449e-01
4.497204720973968506e-01
2.844447791576385498e-01
1.593407988548278809e-01
8.673550933599472046e-02
5.687339976429939270e-02
4.821517318487167358e-02
4.326551035046577454e-02
3.732798993587493896e-02
3.576251864433288574e-02
4.448518529534339905e-02
6.196017190814018250e-02
7.955984026193618774e-02
8.884055912494659424e-02
8.891586959362030029e-02
8.707835525274276733e-02
9.261713176965713501e-02
1.085306853055953979e-01
1.283338516950607300e-01
1.407191157341003418e-01
1.388969719409942627e-01
1.265949308872222900e-01
1.149514168500900269e-01
1.140899509191513062e-01
1.248724833130836487e-01
1.391893476247787476e-01
1.474207341670989990e-01
1.469623595476150513e-01
1.439556330442428589e-01
1.464479416608810425e-01
1.555637568235397339e-01
1.640696525573730469e-01
1.631836742162704468e-01
1.510665565729141235e-01
1.357938200235366821e-01
1.290151923894882202e-01
1.357832700014114380e-01
1.498054265975952148e-01
1.591131687164306641e-01
1.556777358055114746e-01
1.425785124301910400e-01
1.313602924346923828e-01
1.327653676271438599e-01
1.478441655635833740e-01
1.668596267700195312e-01
1.768701225519180298e-01
1.721889227628707886e-01
1.587405055761337280e-01
1.489644646644592285e-01
1.520231962203979492e-01
1.661068499088287354e-01
1.800711005926132202e-01
1.828574836254119873e-01
1.727049052715301514e-01
1.583277881145477295e-01
1.518093943595886230e-01
1.588128656148910522e-01
1.740396320819854736e-01
1.853591054677963257e-01
1.840228140354156494e-01
1.717496663331985474e-01
1.591611355543136597e-01
1.573450565338134766e-01
1.688946336507797241e-01
1.856014877557754517e-01
1.949177682399749756e-01
1.902957260608673096e-01
1.762768179178237915e-01
1.644598692655563354e-01
1.641232222318649292e-01
1.744387000799179077e-01
1.850485503673553467e-01
1.848423480987548828e-01
1.714583635330200195e-01
1.533731520175933838e-01
1.430479139089584351e-01
1.471194922924041748e-01
1.608484983444213867e-01
1.719870716333389282e-01
1.708111912012100220e-01
1.581062078475952148e-01
1.441338956356048584e-01
1.402067095041275024e-01
1.494745314121246338e-01
1.642775684595108032e-01
1.723403185606002808e-01
1.670529395341873169e-01
1.529430449008941650e-01
1.418625414371490479e-01
1.435624808073043823e-01
1.576316952705383301e-01
1.735595315694808960e-01
1.791127473115921021e-01
1.705810725688934326e-01
1.555313020944595337e-01
1.464685946702957153e-01
1.507280617952346802e-01
1.643677800893783569e-01
1.753958016633987427e-01
1.737936884164810181e-01
1.599344015121459961e-01
1.442245692014694214e-01
1.387424767017364502e-01
1.474454253911972046e-01
1.628802567720413208e-01
1.720876842737197876e-01
1.671942323446273804e-01
1.518690139055252075e-01
1.382240206003189087e-01
1.370982825756072998e-01
1.494225263595581055e-01
1.654516011476516724e-01
1.727685630321502686e-01
1.666635125875473022e-01
1.536000072956085205e-01
1.453819870948791504e-01
1.494836956262588501e-01
1.627388000488281250e-01
1.741686761379241943e-01
1.743682026863098145e-01
2.194776833057403564e-01
2.087099105119705200e-01
1.980663388967514038e-01
1.981763988733291626e-01
2.105227559804916382e-01
2.259355187416076660e-01
2.317980080842971802e-01
2.228487282991409302e-01
2.060097903013229370e-01
1.951140761375427246e-01
2.002542316913604736e-01
2.196879386901855469e-01
2.411665469408035278e-01
2.516835927963256836e-01
2.477054446935653687e-01
2.373450398445129395e-01
2.330449819564819336e-01
2.411979138851165771e-01
2.566475272178649902e-01
2.668622732162475586e-01
2.623298466205596924e-01
2.443384826183319092e-01
2.237175256013870239e-01
2.124143093824386597e-01
2.142131924629211426e-01
2.220282405614852905e-01
2.240685820579528809e-01
2.140341401100158691e-01
1.962273120880126953e-01
1.819196343421936035e-01
1.801053732633590698e-01
1.899733096361160278e-01
2.011962383985519409e-01
2.021771371364593506e-01
1.898535192012786865e-01
1.721235066652297974e-01
1.612953841686248779e-01
1.642379164695739746e-01
1.767735183238983154e-01
1.869898438453674316e-01
1.851473748683929443e-01
1.717204004526138306e-01
1.564816832542419434e-01
1.505484730005264282e-01
1.572715938091278076e-01
1.695276498794555664e-01
1.757626831531524658e-01
1.696726828813552856e-01
1.554506123065948486e-01
1.444065719842910767e-01
1.458427906036376953e-01
1.592718064785003662e-01
1.743940263986587524e-01
1.789938658475875854e-01
1.683877557516098022e-01
1.486346572637557983e-01
1.308210790157318115e-01
1.219320073723793030e-01
1.194355487823486328e-01
1.143883839249610901e-01
1.015412285923957825e-01
8.790101855993270874e-02
9.208143502473831177e-02
1.343460977077484131e-01
2.238349616527557373e-01
3.517580330371856689e-01
4.958119690418243408e-01
6.327572464942932129e-01
7.494804263114929199e-01
8.445042371749877930e-01
9.208190441131591797e-01
9.762340784072875977e-01
1.000000000000000000e+00
9.784494042396545410e-01
9.051240682601928711e-01
7.866289615631103516e-01
6.407146453857421875e-01
4.886650443077087402e-01
3.471920490264892578e-01
2.252073734998703003e-01
1.264358907938003540e-01
5.399890616536140442e-02
1.154514402151107788e-02
0.000000000000000000e+00
1.309598423540592194e-02
3.671450912952423096e-02
5.455363914370536804e-02
5.779376626014709473e-02
5.061186105012893677e-02
4.609308391809463501e-02
5.545755103230476379e-02
7.885342836380004883e-02
1.048227474093437195e-01
1.192991435527801514e-01
1.168227493762969971e-01
1.045471057295799255e-01
9.602697193622589111e-02
1.007428392767906189e-01
1.168583407998085022e-01
1.333695948123931885e-01
1.394473612308502197e-01
1.333394944667816162e-01
1.234234273433685303e-01
1.209343373775482178e-01
1.305802464485168457e-01
1.464179158210754395e-01
1.565607041120529175e-01
1.531203538179397583e-01
1.390792131423950195e-01
1.259959340095520020e-01
1.251668035984039307e-01
1.385483145713806152e-01
1.570716947317123413e-01
1.677997857332229614e-01
1.643603742122650146e-01
1.517643928527832031e-01
1.419809758663177490e-01
1.444510966539382935e-01
1.582503020763397217e-01
1.727569550275802612e-01
1.764657348394393921e-01
1.667114794254302979e-01
1.518779247999191284e-01
1.447079330682754517e-01
1.521491706371307373e-01
1.695031821727752686e-01
1.840747445821762085e-01
1.854816526174545288e-01
1.741923987865447998e-01
1.608033627271652222e-01
1.574614793062210083e-01
1.681194901466369629e-01
1.854549944400787354e-01
1.966575533151626587e-01
1.941244006156921387e-01
1.813860535621643066e-01
1.698440462350845337e-01
1.695616692304611206e-01
1.810652613639831543e-01
1.948439180850982666e-01
1.993164420127868652e-01
1.908375471830368042e-01
1.765243709087371826e-01
1.683128178119659424e-01
1.729725450277328491e-01
1.861216872930526733e-01
1.957414001226425171e-01
1.921610385179519653e-01
1.764398664236068726e-01
1.596115827560424805e-01
1.536793112754821777e-01
1.620239913463592529e-01
1.765667051076889038e-01
1.840720772743225098e-01
1.769648045301437378e-01
1.593923866748809814e-01
1.435105055570602417e-01
1.400936692953109741e-01
1.500624120235443115e-01
1.639019101858139038e-01
1.696283072233200073e-01
1.626541465520858765e-01
1.493850648403167725e-01
1.419148147106170654e-01
1.482977122068405151e-01
1.654486656188964844e-01
1.812247186899185181e-01
1.839475929737091064e-01
1.718980371952056885e-01
1.548822373151779175e-01
1.465210765600204468e-01
1.535452604293823242e-01
1.704879999160766602e-01
1.841468662023544312e-01
1.848547905683517456e-01
1.736409515142440796e-01
1.608839482069015503e-01
1.564554870128631592e-01
1.613174825906753540e-01
1.682511866092681885e-01
1.693038940429687500e-01
1.639553755521774292e-01
1.593820303678512573e-01
1.630030125379562378e-01
1.744429469108581543e-01
1.852114945650100708e-01
1.862229704856872559e-01
1.759814023971557617e-01
1.629390418529510498e-01
1.587553322315216064e-01
1.683610975742340088e-01
1.860583424568176270e-01
1.996421068906784058e-01
2.002996951341629028e-01
1.896597146987915039e-01
1.782156974077224731e-01
1.768848448991775513e-01
1.877959221601486206e-01
2.025888711214065552e-01
2.093693912029266357e-01
