2.010374218225479126e-01
1.883713155984878540e-01
1.767409890890121460e-01
1.771493554115295410e-01
1.905741989612579346e-01
2.071617692708969116e-01
2.140437513589859009e-01
2.059589773416519165e-01
1.894984841346740723e-01
1.778444647789001465e-01
1.804653704166412354e-01
1.957180947065353394e-01
2.122668474912643433e-01
2.185795605182647705e-01
2.126959562301635742e-01
2.035558968782424927e-01
2.033620774745941162e-01
2.171615958213806152e-01
2.379689216613769531e-01
2.517570555210113525e-01
2.488715499639511108e-01
2.317588180303573608e-01
2.126599401235580444e-01
2.039145082235336304e-01
2.082142531871795654e-01
2.168226242065429688e-01
2.170890867710113525e-01
2.032237797975540161e-01
1.811766922473907471e-01
1.637491583824157715e-01
1.605619341135025024e-01
1.703130602836608887e-01
1.815987825393676758e-01
1.822597384452819824e-01
1.692861467599868774e-01
1.511006653308868408e-01
1.406821906566619873e-01
1.449657082557678223e-01
1.589766591787338257e-01
1.697030961513519287e-01
1.667874753475189209e-01
1.507877260446548462e-01
1.326136291027069092e-01
1.249378472566604614e-01
1.320691555738449097e-01
1.466802507638931274e-01
1.557878702878952026e-01
1.515784114599227905e-01
1.377201229333877563e-01
1.258440762758255005e-01
1.259686499834060669e-01
1.379747390747070312e-01
1.514664590358734131e-01
1.543569713830947876e-01
1.432589739561080933e-01
1.260500401258468628e-01
1.148040816187858582e-01
1.156257987022399902e-01
1.227298155426979065e-01
1.225034147500991821e-01
1.047024428844451904e-01
7.172670960426330566e-02
3.876017406582832336e-02
2.525597438216209412e-02
4.400013014674186707e-02
9.593441337347030640e-02
1.736599504947662354e-01
2.700828611850738525e-01
3.834011554718017578e-01
5.143124461174011230e-01
6.583023667335510254e-01
7.999954223632812500e-01
9.159277677536010742e-01
9.851576685905456543e-01
1.000000000000000000e+00
9.679718017578125000e-01
9.035723805427551270e-01
8.168444633483886719e-01
7.080599665641784668e-01
5.733993649482727051e-01
4.169608354568481445e-01
2.574538588523864746e-01
1.226682290434837341e-01
3.526733815670013428e-02
0.000000000000000000e+00
1.645145937800407410e-03
1.529528852552175522e-02
2.173320204019546509e-02
1.710087992250919342e-02
1.044935081154108047e-02
1.362987235188484192e-02
3.054489009082317352e-02
5.367765948176383972e-02
7.036767899990081787e-02
7.333458960056304932e-02
6.646663695573806763e-02
6.105298548936843872e-02
6.633784621953964233e-02
8.174165338277816772e-02
9.719161689281463623e-02
1.018768027424812317e-01
9.364873170852661133e-02
8.064364641904830933e-02
7.470593601465225220e-02
8.175896108150482178e-02
9.685825556516647339e-02
1.080961078405380249e-01
1.065839678049087524e-01
9.385766834020614624e-02
8.062306046485900879e-02
7.827953994274139404e-02
8.977138996124267578e-02
1.069857776165008545e-01
1.171655431389808655e-01
1.132253631949424744e-01
9.955510497093200684e-02
8.827452361583709717e-02
8.969171345233917236e-02
1.039692908525466919e-01
1.208719909191131592e-01
1.281428486108779907e-01
1.216179281473159790e-01
1.084534898400306702e-01
1.010822132229804993e-01
1.072287112474441528e-01
1.232239380478858948e-01
1.367831826210021973e-01
1.372077614068984985e-01
1.243946105241775513e-01
1.090743690729141235e-01
1.043168455362319946e-01
1.149715483188629150e-01
1.335487067699432373e-01
1.461914330720901489e-01
1.442058980464935303e-01
1.311785131692886353e-01
1.196464374661445618e-01
1.208325400948524475e-01
1.352467089891433716e-01
1.523279398679733276e-01
1.592635661363601685e-01
1.517702043056488037e-01
1.375693380832672119e-01
1.296359747648239136e-01
1.358041316270828247e-01
1.520330905914306641e-01
1.656509637832641602e-01
1.656720042228698730e-01
1.520251333713531494e-01
1.352934837341308594e-01
1.282928436994552612e-01
1.358240991830825806e-01
1.505377888679504395e-01
1.586549878120422363e-01
1.512467712163925171e-01
1.315817385911941528e-01
1.123863384127616882e-01
1.059568449854850769e-01
1.144467070698738098e-01
1.282886415719985962e-01
1.342012435197830200e-01
1.262207776308059692e-01
1.101826727390289307e-01
9.859960526227951050e-02
1.002881005406379700e-01
1.131168380379676819e-01
1.257182359695434570e-01
1.269534677267074585e-01
1.153451353311538696e-01
1.001753658056259155e-01
9.403822571039199829e-02
1.026782467961311340e-01
1.199640482664108276e-01
1.324527263641357422e-01
1.302344053983688354e-01
1.152801141142845154e-01
9.956820309162139893e-02
9.550624340772628784e-02
1.058640703558921814e-01
1.216527000069618225e-01
1.295500546693801880e-01
1.229803860187530518e-01
1.074432581663131714e-01
9.568633884191513062e-02
9.721952676773071289e-02
1.105653122067451477e-01
1.244089528918266296e-01
1.269174516201019287e-01
1.155994459986686707e-01
9.928364306688308716e-02
9.101752936840057373e-02
9.773594886064529419e-02
1.144584044814109802e-01
1.280725300312042236e-01
1.281453371047973633e-01
1.152737215161323547e-01
1.004814431071281433e-01
9.649230539798736572e-02
1.075784489512443542e-01
1.258701086044311523e-01
2.238057553768157959e-01
2.066419869661331177e-01
2.016145139932632446e-01
2.137732654809951782e-01
2.344722002744674683e-01
2.482880800962448120e-01
2.456198334693908691e-01
2.301973104476928711e-01
2.153835147619247437e-01
2.135140448808670044e-01
2.260887622833251953e-01
2.431869506835937500e-01
2.523566186428070068e-01
2.492542266845703125e-01
2.410613447427749634e-01
2.402060925960540771e-01
2.538168430328369141e-01
2.770418524742126465e-01
2.961629927158355713e-01
2.992588579654693604e-01
2.857950627803802490e-01
2.669501602649688721e-01
2.570491731166839600e-01
2.622524499893188477e-01
2.757157385349273682e-01
2.833379805088043213e-01
2.757255136966705322e-01
2.560401260852813721e-01
2.371804416179656982e-01
2.313941866159439087e-01
2.401319444179534912e-01
2.526280283927917480e-01
2.546104490756988525e-01
2.404584437608718872e-01
2.176335752010345459e-01
2.005489617586135864e-01
1.992672830820083618e-01
2.114047557115554810e-01
2.237830907106399536e-01
2.230826765298843384e-01
2.066078335046768188e-01
1.843920350074768066e-01
1.711654961109161377e-01
1.747832447290420532e-01
1.899992525577545166e-01
2.026795446872711182e-01
2.016088366508483887e-01
1.875915974378585815e-01
1.723266690969467163e-01
1.685861796140670776e-01
1.794328838586807251e-01
1.952720433473587036e-01
2.018139809370040894e-01
1.921461373567581177e-01
1.725446879863739014e-01
1.573415547609329224e-01
1.577909737825393677e-01
1.724190264940261841e-01
1.876164823770523071e-01
1.877732276916503906e-01
1.672244966030120850e-01
1.342081874608993530e-01
1.041454300284385681e-01
8.890676498413085938e-02
9.024526178836822510e-02
1.029331088066101074e-01
1.249169781804084778e-01
1.650211364030838013e-01
2.391225248575210571e-01
3.580882847309112549e-01
5.152698159217834473e-01
6.843418478965759277e-01
8.311291933059692383e-01
9.317202568054199219e-01
9.833189845085144043e-01
1.000000000000000000e+00
9.978596568107604980e-01
9.807047843933105469e-01
9.373908042907714844e-01
8.528653383255004883e-01
7.245845198631286621e-01
5.695676803588867188e-01
4.166196584701538086e-01
2.901135683059692383e-01
1.980537623167037964e-01
1.322307437658309937e-01
7.993330806493759155e-02
3.639166057109832764e-02
7.050081156194210052e-03
0.000000000000000000e+00
1.516536530107259750e-02
4.056886956095695496e-02
5.957669019699096680e-02
6.262363493442535400e-02
5.395883694291114807e-02
4.787336289882659912e-02
5.729075148701667786e-02
8.331775665283203125e-02
1.139631569385528564e-01
1.333889812231063843e-01
1.346220821142196655e-01
1.248371526598930359e-01
1.191147565841674805e-01
1.282459795475006104e-01
1.500921547412872314e-01
1.713581085205078125e-01
1.787463724613189697e-01
1.700022667646408081e-01
1.552281379699707031e-01
1.485893726348876953e-01
1.567975282669067383e-01
1.736085116863250732e-01
1.853118389844894409e-01
1.824216246604919434e-01
1.678110957145690918e-01
1.543315201997756958e-01
1.544221490621566772e-01
1.700154840946197510e-01
1.907593905925750732e-01
2.020790427923202515e-01
1.969538778066635132e-01
1.814693808555603027e-01
1.695267558097839355e-01
1.718470156192779541e-01
1.873912513256072998e-01
2.043227553367614746e-01
2.099845409393310547e-01
2.016344219446182251e-01
1.884631514549255371e-01
1.841065585613250732e-01
1.953410506248474121e-01
2.160701900720596313e-01
2.321119308471679688e-01
2.327264994382858276e-01
2.192517220973968506e-01
2.037284374237060547e-01
1.992950886487960815e-01
2.099124491214752197e-01
2.274125069379806519e-01
2.384598851203918457e-01
2.356888204813003540e-01
2.237643748521804810e-01
2.151320278644561768e-01
2.198690474033355713e-01
2.371184676885604858e-01
2.551379799842834473e-01
2.606902718544006348e-01
2.499257922172546387e-01
2.314563244581222534e-01
2.195112854242324829e-01
2.226222604513168335e-01
2.367486953735351562e-01
2.485318481922149658e-01
2.464000731706619263e-01
2.303243428468704224e-01
2.116382271051406860e-01
2.038908302783966064e-01
2.117977142333984375e-01
2.273644357919692993e-01
2.362726628780364990e-01
2.296419590711593628e-01
2.114032208919525146e-01
1.946586668491363525e-01
1.912486553192138672e-01
2.020098567008972168e-01
2.161968946456909180e-01
2.204065471887588501e-01
2.099900394678115845e-01
1.927213966846466064e-01
1.822686642408370972e-01
1.872007101774215698e-01
2.036022543907165527e-01
2.179175168275833130e-01
2.178608626127243042e-01
2.023588567972183228e-01
1.822781115770339966e-01
1.717534661293029785e-01
1.769385337829589844e-01
1.913077086210250854e-01
2.010852545499801636e-01
1.969557702541351318e-01
1.816137582063674927e-01
1.674301624298095703e-01
1.662116646766662598e-01
1.793549358844757080e-01
1.964428275823593140e-01
2.036328166723251343e-01
1.951554864645004272e-01
1.780612468719482422e-01
1.663137972354888916e-01
1.697873473167419434e-01
1.859564483165740967e-01
2.018184512853622437e-01
2.044865190982818604e-01
1.918362677097320557e-01
1.739518493413925171e-01
1.647684425115585327e-01
1.710547655820846558e-01
1.869741082191467285e-01
1.989884972572326660e-01
1.138465330004692078e-01
1.095140576362609863e-01
9.679482877254486084e-02
8.751775324344635010e-02
9.093672037124633789e-02
1.059849187731742859e-01
1.218843311071395874e-01
1.269252747297286987e-01
1.180747747421264648e-01
1.033545732498168945e-01
9.517879039049148560e-02
1.005581393837928772e-01
1.154670268297195435e-01
1.280338615179061890e-01
1.284058690071105957e-01
1.163329556584358215e-01
1.016436740756034851e-01
9.635546803474426270e-02
1.067956909537315369e-01
1.306025087833404541e-01
1.592122316360473633e-01
1.821504384279251099e-01
1.917159557342529297e-01
1.858367323875427246e-01
1.690862625837326050e-01
1.511866152286529541e-01
1.423949897289276123e-01
1.467729657888412476e-01
1.586521416902542114e-01
1.662776321172714233e-01
1.607525795698165894e-01
1.438300758600234985e-01
1.262395530939102173e-01
1.195315718650817871e-01
1.266823261976242065e-01
1.396571397781372070e-01
1.457524001598358154e-01
1.383209377527236938e-01
1.222463697195053101e-01
1.097113639116287231e-01
1.102769523859024048e-01
1.228012591600418091e-01
1.363046467304229736e-01
1.389046609401702881e-01
1.276947110891342163e-01
1.110117435455322266e-01
1.013085469603538513e-01
1.048024445772171021e-01
1.157511621713638306e-01
1.203305944800376892e-01
1.075362786650657654e-01
7.840914279222488403e-02
4.596666991710662842e-02
2.695785276591777802e-02
3.198184818029403687e-02
6.141006946563720703e-02
1.100989803671836853e-01
1.762490570545196533e-01
2.653108835220336914e-01
3.848145008087158203e-01
5.342178344726562500e-01
6.972960829734802246e-01
8.453834056854248047e-01
9.505634903907775879e-01
1.000000000000000000e+00
9.999336600303649902e-01
9.666388034820556641e-01
9.118845462799072266e-01
8.337320089340209961e-01
7.213155031204223633e-01
5.702567696571350098e-01
3.951180875301361084e-01
2.272376418113708496e-01
9.920497983694076538e-02
2.721819654107093811e-02
3.708004020154476166e-03
5.027713719755411148e-03
8.600416593253612518e-03
5.220109596848487854e-03
0.000000000000000000e+00
1.761595485731959343e-03
1.271120272576808929e-02
2.709449268877506256e-02
3.716240823268890381e-02
4.119082540273666382e-02
4.501866921782493591e-02
5.543970689177513123e-02
7.209517061710357666e-02
8.669985085725784302e-02
9.009160846471786499e-02
8.088708668947219849e-02
6.787986308336257935e-02
6.340777128934860229e-02
7.301864027976989746e-02
9.113580733537673950e-02
1.052082031965255737e-01
1.060964316129684448e-01
9.549608081579208374e-02
8.414607495069503784e-02
8.321709930896759033e-02
9.522057324647903442e-02
1.119187101721763611e-01
1.209929734468460083e-01
1.163490116596221924e-01
1.029517874121665955e-01
9.276046603918075562e-02
9.502281993627548218e-02
1.086397990584373474e-01
1.229010224342346191e-01
1.261396408081054688e-01
1.156421750783920288e-01
9.968774765729904175e-02
9.094668179750442505e-02
9.634892642498016357e-02
1.113696247339248657e-01
1.236759573221206665e-01
1.233210563659667969e-01
1.110987216234207153e-01
9.775085747241973877e-02
9.519113600254058838e-02
1.068802848458290100e-01
1.246547400951385498e-01
1.352418512105941772e-01
1.312461495399475098e-01
1.171852052211761475e-01
1.056656986474990845e-01
1.071473211050033569e-01
1.214402168989181519e-01
1.377473175525665283e-01
1.436410993337631226e-01
1.354763358831405640e-01
1.211936995387077332e-01
1.136358454823493958e-01
1.200779825448989868e-01
1.361992210149765015e-01
1.494898498058319092e-01
1.495121419429779053e-01
1.365835666656494141e-01
1.211916133761405945e-01
1.154313385486602783e-01
1.231771260499954224e-01
1.368086785078048706e-01
1.432228535413742065e-01
1.346908360719680786e-01
1.153086796402931213e-01
9.760901331901550293e-02
9.274797141551971436e-02
1.016194373369216919e-01
1.143113151192665100e-01
1.184958443045616150e-01
1.097351461648941040e-01
9.513210505247116089e-02
8.728655427694320679e-02
9.395751357078552246e-02
1.113624870777130127e-01
1.267464160919189453e-01
1.284620612859725952e-01
1.154463589191436768e-01
9.806904196739196777e-02
8.999213576316833496e-02
9.745676070451736450e-02
1.140981018543243408e-01
1.261437982320785522e-01
1.236410215497016907e-01
1.086805388331413269e-01
9.337452799081802368e-02
9.022779762744903564e-02
1.018928661942481995e-01
1.189259886741638184e-01
1.276147216558456421e-01
1.213261708617210388e-01
1.057702228426933289e-01
9.400270879268646240e-02
9.589707851409912109e-02
1.101053729653358459e-01
1.250695586204528809e-01
1.284186542034149170e-01
1.171887740492820740e-01
1.000260040163993835e-01
9.020906686782836914e-02
9.511158615350723267e-02
1.105072572827339172e-01
1.240504905581474304e-01
1.256472021341323853e-01
1.156273037195205688e-01
1.039104983210563660e-01
1.016679108142852783e-01
1.118140369653701782e-01
1.264908313751220703e-01
1.337539851665496826e-01
1.277468949556350708e-01
1.137356162071228027e-01
1.037261262536048889e-01
1.069758906960487366e-01
1.222590133547782898e-01
1.387080997228622437e-01
1.443974524736404419e-01
1.361155211925506592e-01
1.217619627714157104e-01
1.138771623373031616e-01
1.767822802066802979e-01
1.660055220127105713e-01
1.584908515214920044e-01
1.626093685626983643e-01
1.763922125101089478e-01
1.889004856348037720e-01
1.890588104724884033e-01
1.751127839088439941e-01
1.565744578838348389e-01
1.471280753612518311e-01
1.542549580335617065e-01
1.734094768762588501e-01
1.916966587305068970e-01
1.985088288784027100e-01
1.938247680664062500e-01
1.873727887868881226e-01
1.900575011968612671e-01
2.043819278478622437e-01
2.217802107334136963e-01
2.295012921094894409e-01
2.214228957891464233e-01
2.031610459089279175e-01
1.875353753566741943e-01
1.844451278448104858e-01
1.929129809141159058e-01
2.019786983728408813e-01
1.997195482254028320e-01
1.831503957509994507e-01
1.607994437217712402e-01
1.458938568830490112e-01
1.461692750453948975e-01
1.578062474727630615e-01
1.684782058000564575e-01
1.674450933933258057e-01
1.541847288608551025e-01
1.382784843444824219e-01
1.313995867967605591e-01
1.377020180225372314e-01
1.502591222524642944e-01
1.566211730241775513e-01
1.493189781904220581e-01
1.321877688169479370e-01
1.171597912907600403e-01
1.148372441530227661e-01
1.257928162813186646e-01
1.399127840995788574e-01
1.444420069456100464e-01
1.345140933990478516e-01
1.168978661298751831e-01
1.042512804269790649e-01
1.051601842045783997e-01
1.171575114130973816e-01
1.289391815662384033e-01
1.298988908529281616e-01
1.189838200807571411e-01
1.051269769668579102e-01
9.924675524234771729e-02
1.046011671423912048e-01
1.130791902542114258e-01
1.110702827572822571e-01
9.061479568481445312e-02
5.682934448122978210e-02
2.552597597241401672e-02
1.388414483517408371e-02
3.092588111758232117e-02
7.514336705207824707e-02
1.403644382953643799e-01
2.241552323102951050e-01
3.304128348827362061e-01
4.631673693656921387e-01
6.169001460075378418e-01
7.717045545578002930e-01
8.994120955467224121e-01
9.773830175399780273e-01
1.000000000000000000e+00
9.783136248588562012e-01
9.285914301872253418e-01
8.587292432785034180e-01
7.638027071952819824e-01
6.350605487823486328e-01
4.749822318553924561e-01
3.047409653663635254e-01
1.565166711807250977e-01
5.666357651352882385e-02
1.126586273312568665e-02
4.575169179588556290e-03
1.103382091969251633e-02
1.211061701178550720e-02
5.258100572973489761e-03
0.000000000000000000e+00
6.552985403686761856e-03
2.598444931209087372e-02
4.892020300030708313e-02
6.351397186517715454e-02
6.532374769449234009e-02
6.063012778759002686e-02
6.077830120921134949e-02
7.236083596944808960e-02
9.114348888397216797e-02
1.053550690412521362e-01
1.056703776121139526e-01
9.345511347055435181e-02
7.997211068868637085e-02
7.743056863546371460e-02
8.921314775943756104e-02
1.068436279892921448e-01
1.167592480778694153e-01
1.114721819758415222e-01
9.596207737922668457e-02
8.345698565244674683e-02
8.509356528520584106e-02
1.007982566952705383e-01
1.191671788692474365e-01
1.265916079282760620e-01
1.183172687888145447e-01
1.020210981369018555e-01
9.142224490642547607e-02
9.541336447000503540e-02
1.108929887413978577e-01
1.255685091018676758e-01
1.282673180103302002e-01
1.182129234075546265e-01
1.051709577441215515e-01
1.012191176414489746e-01
1.107480004429817200e-01
1.267191618680953979e-01
1.364001631736755371e-01
1.320230662822723389e-01
1.172046810388565063e-01
1.039415895938873291e-01
1.031893491744995117e-01
1.159507408738136292e-01
1.324110031127929688e-01
1.398190557956695557e-01
1.330219060182571411e-01
1.185998171567916870e-01
1.092938706278800964e-01
1.137568131089210510e-01
1.291499882936477661e-01
1.433112174272537231e-01
1.445398330688476562e-01
1.313860863447189331e-01
1.136002987623214722e-01
1.042606830596923828e-01
1.094311252236366272e-01
1.234149113297462463e-01
1.335258781909942627e-01
1.306380927562713623e-01
1.165984869003295898e-01
1.024490892887115479e-01
9.946969896554946899e-02
1.096247956156730652e-01
1.236933618783950806e-01
1.286399513483047485e-01
1.187604218721389771e-01
1.005166172981262207e-01
8.750725537538528442e-02
8.964947611093521118e-02
1.049973070621490479e-01
1.211281642317771912e-01
1.252968758344650269e-01
1.150207594037055969e-01
9.969810396432876587e-02
9.273790568113327026e-02
1.007075607776641846e-01
1.180644482374191284e-01
1.317273229360580444e-01
1.320392936468124390e-01
1.205641329288482666e-01
1.084789931774139404e-01
1.073122620582580566e-01
1.194955259561538696e-01
1.362565308809280396e-01
1.446828395128250122e-01
1.383553743362426758e-01
1.225537806749343872e-01
1.098753437399864197e-01
1.103694513440132141e-01
1.234631389379501343e-01
1.384565383195877075e-01
1.433215290307998657e-01
1.345057636499404907e-01
1.196255013346672058e-01
1.109312102198600769e-01
1.154314577579498291e-01
1.290134936571121216e-01
1.400002986192703247e-01
1.390625685453414917e-01
1.272618025541305542e-01
1.151619553565979004e-01
1.142363622784614563e-01
1.272062957286834717e-01
1.454106718301773071e-01
1.554721891880035400e-01
1.503669619560241699e-01
1.352851390838623047e-01
1.232875138521194458e-01
1.251829862594604492e-01
1.406709402799606323e-01
1.586338728666305542e-01
2.334857136011123657e-01
2.187620252370834351e-01
2.025202214717864990e-01
1.972458511590957642e-01
2.065395414829254150e-01
2.224217504262924194e-01
2.321680784225463867e-01
2.292126566171646118e-01
2.184908688068389893e-01
2.120080590248107910e-01
2.191181480884552002e-01
2.383765429258346558e-01
2.582883834838867188e-01
2.661970853805541992e-01
2.584771513938903809e-01
2.432917803525924683e-01
2.338732033967971802e-01
2.380243986845016479e-01
2.517233192920684814e-01
2.621696591377258301e-01
2.581785619258880615e-01
2.395815104246139526e-01
2.172053903341293335e-01
2.042102962732315063e-01
2.057661414146423340e-01
2.151195853948593140e-01
2.192828059196472168e-01
2.101943641901016235e-01
1.914185434579849243e-01
1.750020831823348999e-01
1.716651916503906250e-01
1.817547827959060669e-01
1.945867985486984253e-01
1.969727873802185059e-01
1.841650158166885376e-01
1.636108458042144775e-01
1.487809717655181885e-01
1.484484821557998657e-01
1.596493721008300781e-01
1.702755987644195557e-01
1.691874414682388306e-01
1.555466800928115845e-01
1.391565352678298950e-01
1.323559582233428955e-01
1.399711370468139648e-01
1.552450805902481079e-01
1.651646345853805542e-01
1.611633747816085815e-01
1.461857855319976807e-01
1.319876462221145630e-01
1.296246349811553955e-01
1.399500668048858643e-01
1.521178632974624634e-01
1.515392363071441650e-01
1.311064660549163818e-01
9.638853371143341064e-02
6.093745306134223938e-02
3.655825555324554443e-02
2.601237967610359192e-02
2.464751154184341431e-02
2.945149317383766174e-02
4.739352315664291382e-02
9.486993402242660522e-02
1.874570548534393311e-01
3.271405398845672607e-01
4.961050152778625488e-01
6.632220149040222168e-01
8.001286983489990234e-01
8.947463035583496094e-01
9.526505470275878906e-01
9.862207174301147461e-01
1.000000000000000000e+00
9.844647049903869629e-01
9.228193163871765137e-01
8.061895966529846191e-01
6.449287533760070801e-01
4.669032692909240723e-01
3.045775890350341797e-01
1.797253936529159546e-01
9.628488868474960327e-02
4.495476558804512024e-02
1.458406168967485428e-02
0.000000000000000000e+00
1.277860603295266628e-03
1.750572398304939270e-02
4.117395728826522827e-02
6.021000817418098450e-02
6.636681407690048218e-02
6.166077405214309692e-02
5.663982778787612915e-02
6.207283586263656616e-02
7.999569177627563477e-02
1.017281934618949890e-01
1.147036403417587280e-01
1.126770973205566406e-01
1.009669899940490723e-01
9.209170192480087280e-02
9.603099524974822998e-02
1.121528297662734985e-01
1.294471323490142822e-01
1.352988630533218384e-01
1.261127740144729614e-01
1.103388145565986633e-01
1.017278805375099182e-01
1.084655299782752991e-01
1.262512952089309692e-01
1.415190547704696655e-01
1.425080001354217529e-01
1.289902180433273315e-01
1.122171729803085327e-01
1.059481576085090637e-01
1.154347285628318787e-01
1.333098709583282471e-01
1.456550210714340210e-01
1.434912383556365967e-01
1.299290806055068970e-01
1.171514317393302917e-01
1.165696308016777039e-01
1.295319199562072754e-01
1.462870687246322632e-01
1.538852900266647339e-01
1.469855010509490967e-01
1.321215629577636719e-01
1.224055066704750061e-01
1.270454674959182739e-01
1.437502056360244751e-01
1.604278385639190674e-01
1.649286448955535889e-01
1.550013422966003418e-01
1.398968100547790527e-01
1.327239573001861572e-01
1.398269236087799072e-01
1.554460376501083374e-01
1.663955748081207275e-01
1.631017923355102539e-01
1.476983726024627686e-01
1.322275847196578979e-01
1.289681941270828247e-01
1.404613256454467773e-01
1.570372283458709717e-01
1.644961386919021606e-01
1.558371782302856445e-01
1.369168311357498169e-01
1.215962842106819153e-01
1.207257285714149475e-01
1.333268284797668457e-01
1.475107222795486450e-01
1.503970474004745483e-01
1.389370262622833252e-01
1.216682419180870056e-01
1.121225580573081970e-01
1.169923096895217896e-01
1.311719268560409546e-01
1.429403424263000488e-01
1.444759070873260498e-01
1.384455710649490356e-01
1.346690356731414795e-01
1.398443579673767090e-01
1.507555395364761353e-01
1.575887501239776611e-01
1.532641798257827759e-01
1.409044563770294189e-01
1.319841593503952026e-01
1.364321857690811157e-01
1.531930267810821533e-01
1.709513813257217407e-01
1.766785234212875366e-01
1.666887700557708740e-01
1.497440934181213379e-01
1.399754136800765991e-01
1.456009894609451294e-01
1.622015982866287231e-01
1.760102063417434692e-01
1.754724681377410889e-01
1.607799977064132690e-01
1.435199230909347534e-01
1.372710466384887695e-01
1.466054618358612061e-01
1.633412688970565796e-01
1.733207106590270996e-01
1.681951731443405151e-01
1.523471921682357788e-01
1.391207128763198853e-01
1.402575224637985229e-01
1.562532037496566772e-01
1.759517192840576172e-01
1.855056434869766235e-01
1.795469373464584351e-01
1.652259677648544312e-01
1.558791846036911011e-01
1.601942330598831177e-01
1.751504242420196533e-01
1.885312646627426147e-01
1.893628388643264771e-01
1.772538274526596069e-01
1.626318842172622681e-01
1.583092212677001953e-01
1.691059768199920654e-01
1.876917779445648193e-01
2.002394646406173706e-01
2.066225707530975342e-01
1.965687125921249390e-01
1.835936456918716431e-01
1.793434023857116699e-01
1.878554970026016235e-01
2.021498531103134155e-01
2.098565250635147095e-01
2.037930488586425781e-01
1.882442981004714966e-01
1.755613386631011963e-01
1.767274737358093262e-01
1.925006955862045288e-01
2.128773182630538940e-01
2.251406759023666382e-01
2.240219563245773315e-01
2.154710441827774048e-01
2.110504657030105591e-01
2.180220782756805420e-01
2.329217046499252319e-01
2.440537363290786743e-01
2.412027120590209961e-01
2.243256568908691406e-01
2.038769870996475220e-01
1.927545666694641113e-01
1.961769014596939087e-01
2.076726704835891724e-01
2.140752524137496948e-01
2.064096927642822266e-01
1.871075332164764404e-01
1.677294373512268066e-01
1.598658859729766846e-01
1.658130437135696411e-01
1.768220216035842896e-01
1.804261654615402222e-01
1.709046661853790283e-01
1.537515521049499512e-01
1.408187299966812134e-01
1.406498253345489502e-01
1.512824594974517822e-01
1.618039160966873169e-01
1.613330245018005371e-01
1.481960564851760864e-01
1.311920881271362305e-01
1.224941834807395935e-01
1.279074102640151978e-01
1.419529318809509277e-01
1.520560681819915771e-01
1.488004773855209351e-01
1.336041539907455444e-01
1.173892468214035034e-01
1.119125559926033020e-01
1.204011514782905579e-01
1.349416226148605347e-01
1.429692059755325317e-01
1.374734640121459961e-01
1.220383271574974060e-01
1.068332642316818237e-01
9.926740825176239014e-02
9.723956137895584106e-02
9.065332263708114624e-02
7.045163214206695557e-02
3.819330409169197083e-02
8.076292462646961212e-03
0.000000000000000000e+00
2.896792441606521606e-02
9.767708182334899902e-02
1.974663883447647095e-01
3.161852359771728516e-01
4.454988837242126465e-01
5.814700126647949219e-01
7.194063067436218262e-01
8.477559685707092285e-01
9.475638866424560547e-01
1.000000000000000000e+00
9.965210556983947754e-01
9.430956244468688965e-01
8.546026945114135742e-01
7.445731163024902344e-01
6.189851164817810059e-01
4.793753325939178467e-01
3.315997421741485596e-01
1.916517466306686401e-01
8.168036490678787231e-02
1.820292510092258453e-02
1.748776994645595551e-03
1.565432548522949219e-02
3.562321886420249939e-02
4.367544129490852356e-02
3.720438107848167419e-02
2.681916393339633942e-02
2.627133764326572418e-02
4.135563224554061890e-02
6.533652544021606445e-02
8.459183573722839355e-02
8.966898173093795776e-02
8.268976956605911255e-02
7.480946183204650879e-02
7.693371921777725220e-02
9.060919284820556641e-02
1.068384274840354919e-01
1.138825267553329468e-01
1.073885411024093628e-01
9.397710114717483521e-02
8.580353111028671265e-02
9.071262925863265991e-02
1.058241426944732666e-01
1.198460161685943604e-01
1.222500652074813843e-01
1.118839010596275330e-01
9.764985740184783936e-02
9.126117080450057983e-02
9.782449156045913696e-02
1.117667183279991150e-01
1.213958039879798889e-01
1.188294440507888794e-01
1.066766828298568726e-01
9.558132290840148926e-02
9.570825099945068359e-02
1.083674430847167969e-01
1.246629953384399414e-01
1.326044797897338867e-01
1.269565969705581665e-01
1.132612079381942749e-01
1.030652374029159546e-01
1.046641618013381958e-01
1.162672340869903564e-01
1.275439560413360596e-01
1.282533854246139526e-01
1.170372590422630310e-01
1.026622503995895386e-01
9.701436012983322144e-02
1.053995192050933838e-01
1.220545172691345215e-01
1.345525383949279785e-01
1.338269263505935669e-01
1.215162873268127441e-01
1.083247512578964233e-01
1.054168567061424255e-01
1.153293102979660034e-01
1.298381239175796509e-01
1.366994380950927734e-01
1.298776715993881226e-01
1.144359409809112549e-01
1.022552475333213806e-01
1.025380417704582214e-01
1.143890917301177979e-01
1.274779140949249268e-01
1.305939704179763794e-01
1.208345144987106323e-01
1.058946251869201660e-01
9.760072082281112671e-02
1.024148389697074890e-01
1.160496249794960022e-01
1.268882602453231812e-01
1.256821453571319580e-01
1.132265403866767883e-01
9.957742691040039062e-02
9.591669589281082153e-02
1.054509505629539490e-01
1.206783577799797058e-01
1.294683814048767090e-01
1.251992285251617432e-01
1.121987923979759216e-01
1.019485220313072205e-01
1.039759442210197449e-01
1.178574264049530029e-01
1.334952712059020996e-01
1.392965912818908691e-01
1.317784488201141357e-01
1.182185858488082886e-01
1.105928421020507812e-01
1.159622371196746826e-01
1.305651813745498657e-01
1.429246664047241211e-01
1.433584541082382202e-01
1.318977773189544678e-01
1.180927976965904236e-01
1.132646426558494568e-01
1.213756054639816284e-01
1.356616616249084473e-01
1.439847797155380249e-01
1.389516294002532959e-01
1.240929663181304932e-01
1.108227744698524475e-01
1.094685345888137817e-01
1.208875179290771484e-01
1.357978880405426025e-01
1.423090696334838867e-01
1.359607875347137451e-01
1.232513114809989929e-01
1.161073595285415649e-01
1.222274303436279297e-01
1.385209858417510986e-01
1.535396724939346313e-01
1.568135917186737061e-01
1.474599838256835938e-01
1.346791833639144897e-01
1.301992833614349365e-01
1.388209760189056396e-01
1.544523686170578003e-01
8.116883784532546997e-02
9.699603170156478882e-02
1.005038246512413025e-01
9.144037216901779175e-02
8.004535734653472900e-02
7.874941080808639526e-02
9.194911271333694458e-02
1.117689982056617737e-01
1.245736330747604370e-01
1.213235631585121155e-01
1.062144786119461060e-01
9.308157861232757568e-02
9.486405551433563232e-02
1.156659871339797974e-01
1.503663063049316406e-01
1.902348846197128296e-01
2.290502190589904785e-01
2.633974552154541016e-01
2.885418832302093506e-01
2.979806661605834961e-01
2.884780466556549072e-01
2.651258707046508789e-01
2.408226728439331055e-01
2.290993779897689819e-01
2.332008481025695801e-01
2.443090677261352539e-01
2.481054514646530151e-01
2.366870790719985962e-01
2.151315808296203613e-01
1.971129626035690308e-01
1.940567493438720703e-01
2.055559605360031128e-01
2.195876091718673706e-01
2.222721129655838013e-01
2.093578875064849854e-01
1.894382089376449585e-01
1.766874790191650391e-01
1.794820427894592285e-01
1.934794038534164429e-01
2.051977962255477905e-01
2.031948417425155640e-01
1.875605136156082153e-01
1.694834232330322266e-01
1.622230261564254761e-01
1.703578382730484009e-01
1.859441399574279785e-01
1.948891878128051758e-01
1.887908130884170532e-01
1.718634814023971558e-01
1.572623401880264282e-01
1.564454138278961182e-01
1.694964915513992310e-01
1.845428496599197388e-01
1.867333054542541504e-01
1.699002236127853394e-01
1.408233344554901123e-01
1.134012266993522644e-01
9.800045192241668701e-02
9.438421577215194702e-02
9.441035240888595581e-02
9.279723465442657471e-02
9.649496525526046753e-02
1.238999366760253906e-01
1.938210725784301758e-01
3.117078840732574463e-01
4.629583954811096191e-01
6.192159652709960938e-01
7.537429928779602051e-01
8.542768955230712891e-01
9.240707755088806152e-01
9.720281362533569336e-01
1.000000000000000000e+00
9.985957741737365723e-01
9.543059468269348145e-01
8.618317842483520508e-01
7.314749360084533691e-01
5.853040218353271484e-01
4.459353685379028320e-01
3.257527649402618408e-01
2.251658141613006592e-01
1.397712379693984985e-01
6.937009841203689575e-02
2.035361714661121368e-02
0.000000000000000000e+00
7.786944042891263962e-03
3.142591193318367004e-02
5.220906063914299011e-02
5.728995427489280701e-02
4.806987196207046509e-02
3.762619942426681519e-02
4.016288742423057556e-02
5.948954820632934570e-02
8.604671806097030640e-02
1.047361046075820923e-01
1.073570698499679565e-01
9.898952394723892212e-02
9.305626153945922852e-02
1.002782806754112244e-01
1.195520237088203430e-01
1.388300210237503052e-01
1.452551931142807007e-01
1.361309885978698730e-01
1.211795136332511902e-01
1.145611256361007690e-01
1.234976798295974731e-01
1.423866450786590576e-01
1.573116630315780640e-01
1.576467901468276978e-01
1.448297500610351562e-01
1.308408826589584351e-01
1.285836398601531982e-01
1.411344707012176514e-01
1.592293679714202881e-01
1.686625778675079346e-01
1.622821390628814697e-01
1.458162069320678711e-01
1.330360621213912964e-01
1.347172856330871582e-01
1.498663723468780518e-01
1.665938049554824829e-01
1.719409078359603882e-01
1.626452058553695679e-01
1.475222408771514893e-01
1.400251984596252441e-01
1.475010067224502563e-01
1.651843488216400146e-01
1.800490915775299072e-01
1.817824095487594604e-01
1.710677891969680786e-01
1.587119698524475098e-01
1.567972004413604736e-01
1.687375456094741821e-01
1.860963553190231323e-01
1.953914016485214233e-01
1.893336921930313110e-01
1.729494035243988037e-01
1.594578474760055542e-01
1.597846597433090210e-01
1.735564619302749634e-01
1.893152296543121338e-01
1.936469674110412598e-01
1.823909431695938110e-01
1.640649437904357910e-01
1.526880562305450439e-01
1.566190123558044434e-01
1.715361922979354858e-01
1.838199943304061890e-01
1.816437542438507080e-01
1.648474186658859253e-01
1.448117792606353760e-01
1.354102492332458496e-01
1.419785022735595703e-01
1.571484953165054321e-01
1.668992042541503906e-01
1.624423563480377197e-01
1.472988277673721313e-01
1.340347677469253540e-01
1.340398341417312622e-01
1.479756236076354980e-01
1.650814563035964966e-01
1.719084084033966064e-01
1.636094450950622559e-01
1.477846950292587280e-01
1.381507664918899536e-01
1.434015184640884399e-01
1.599886417388916016e-01
1.749223172664642334e-01
1.764998286962509155e-01
1.639975011348724365e-01
1.481992006301879883e-01
1.425940543413162231e-01
1.523460745811462402e-01
1.698678731918334961e-01
1.808069050312042236e-01
1.759050041437149048e-01
1.586810946464538574e-01
1.423162519931793213e-01
1.391924172639846802e-01
1.508018821477890015e-01
1.665083765983581543e-01
1.723126173019409180e-01
1.625526100397109985e-01
1.444101780652999878e-01
1.318763345479965210e-01
1.345201581716537476e-01
1.497056782245635986e-01
1.647593826055526733e-01
1.675439924001693726e-01
1.564852595329284668e-01
1.414965391159057617e-01
1.356870830059051514e-01
1.445860713720321655e-01
1.615398526191711426e-01
1.730310618877410889e-01
1.701141595840454102e-01
1.560276299715042114e-01
1.433670520782470703e-01
1.441114693880081177e-01
1.598112732172012329e-01
1.800412535667419434e-01
1.569609493017196655e-01
1.473945379257202148e-01
1.365371644496917725e-01
1.356950998306274414e-01
1.478367447853088379e-01
1.648062318563461304e-01
1.735334694385528564e-01
1.669450402259826660e-01
1.499927788972854614e-01
1.358781903982162476e-01
1.359970122575759888e-01
1.509679704904556274e-01
1.702589094638824463e-01
1.805677562952041626e-01
1.767792403697967529e-01
1.657299399375915527e-01
1.600247025489807129e-01
1.674419343471527100e-01
1.840714216232299805e-01
1.972779780626296997e-01
1.962395757436752319e-01
1.811374574899673462e-01
1.629223972558975220e-01
1.545337736606597900e-01
1.604199856519699097e-01
1.728700846433639526e-01
1.784437149763107300e-01
1.692582815885543823e-01
1.495543718338012695e-01
1.321976780891418457e-01
1.285051256418228149e-01
1.390622705221176147e-01
1.531818807125091553e-01
1.576193124055862427e-01
1.475267559289932251e-01
1.302250474691390991e-01
1.189790815114974976e-01
1.221748962998390198e-01
1.362603753805160522e-01
1.485414057970046997e-01
1.476777195930480957e-01
1.330776661634445190e-01
1.152318492531776428e-01
1.072007343173027039e-01
1.141858249902725220e-01
1.292623430490493774e-01
1.391000449657440186e-01
1.348956823348999023e-01
1.194805428385734558e-01
1.045277118682861328e-01
1.011815518140792847e-01
1.110600829124450684e-01
1.250273585319519043e-01
1.308172941207885742e-01
1.233540549874305725e-01
1.086705327033996582e-01
9.824179857969284058e-02
9.888934344053268433e-02
1.059342920780181885e-01
1.061947718262672424e-01
8.875124901533126831e-02
5.514236912131309509e-02
2.058617398142814636e-02
5.722604691982269287e-03
2.485299296677112579e-02
7.935863733291625977e-02
1.605438292026519775e-01
2.590904235839843750e-01
3.720038831233978271e-01
5.007429718971252441e-01
6.431555151939392090e-01
7.861752510070800781e-01
9.065616726875305176e-01
9.812854528427124023e-01
1.000000000000000000e+00
9.691666364669799805e-01
9.044750928878784180e-01
8.181092739105224609e-01
7.114509940147399902e-01
5.799017548561096191e-01
4.254394173622131348e-01
2.652841806411743164e-01
1.276641339063644409e-01
3.706653788685798645e-02
0.000000000000000000e+00
1.633854815736413002e-03
1.589817181229591370e-02
2.194050885736942291e-02
1.501543913036584854e-02
4.682670813053846359e-03
4.062092397361993790e-03
1.835398003458976746e-02
4.056837409734725952e-02
5.771257728338241577e-02
6.176339462399482727e-02
5.586942285299301147e-02
5.101630091667175293e-02
5.676297098398208618e-02
7.281012088060379028e-02
8.912856131792068481e-02
9.444765001535415649e-02
8.612452447414398193e-02
7.264697551727294922e-02
6.667882204055786133e-02
7.491618394851684570e-02
9.226572513580322266e-02
1.058284267783164978e-01
1.055773943662643433e-01
9.282019734382629395e-02
7.891536504030227661e-02
7.603593915700912476e-02
8.724778145551681519e-02
1.040509268641471863e-01
1.133544221520423889e-01
1.084766238927841187e-01
9.449898451566696167e-02
8.375737071037292480e-02
8.595483750104904175e-02
1.001670584082603455e-01
1.155817434191703796e-01
1.204022690653800964e-01
1.116610094904899597e-01
9.750606119632720947e-02
9.048883616924285889e-02
9.748793393373489380e-02
1.139538288116455078e-01
1.273544579744338989e-01
1.274616867303848267e-01
1.149655804038047791e-01
1.008278504014015198e-01
9.767514467239379883e-02
1.095462590456008911e-01
1.284697949886322021e-01
1.407581269741058350e-01
1.381036788225173950e-01
1.244131773710250854e-01
1.121685653924942017e-01
1.124435141682624817e-01
1.259417831897735596e-01
1.423781216144561768e-01
1.489569544792175293e-01
1.409352868795394897e-01
1.252959072589874268e-01
1.147789806127548218e-01
1.176401302218437195e-01
1.308756321668624878e-01
1.425935029983520508e-01
1.419424712657928467e-01
1.283141076564788818e-01
1.116742640733718872e-01
1.046101152896881104e-01
1.119094565510749817e-01
1.265993714332580566e-01
1.355668306350708008e-01
1.303708255290985107e-01
1.141553595662117004e-01
9.867105633020401001e-02
9.485405683517456055e-02
1.038564071059226990e-01
1.162336990237236023e-01
1.197562515735626221e-01
1.098536550998687744e-01
9.343833476305007935e-02
8.324098587036132812e-02
8.756233751773834229e-02
1.032542586326599121e-01
1.179636716842651367e-01
1.201349347829818726e-01
1.085858419537544250e-01
9.329636394977569580e-02
8.726560324430465698e-02
9.596192836761474609e-02
1.128624081611633301e-01
1.247853115200996399e-01
1.228717863559722900e-01
1.097759678959846497e-01
9.715190529823303223e-02
9.622392803430557251e-02
1.086271181702613831e-01
1.250263005495071411e-01
1.327026337385177612e-01
1.260607391595840454e-01
1.109881848096847534e-01
9.985280781984329224e-02
1.015894785523414612e-01
1.142542138695716858e-01
1.265777349472045898e-01
1.273277997970581055e-01
1.148723587393760681e-01
9.851035475730895996e-02
9.106539189815521240e-02
9.855467826128005981e-02
1.151526421308517456e-01
1.278062611818313599e-01
1.270069926977157593e-01
1.145616099238395691e-01
1.016854494810104370e-01
9.984229505062103271e-02
1.113088279962539673e-01
1.273075342178344727e-01
2.429440021514892578e-01
2.305221557617187500e-01
2.149834483861923218e-01
2.093519568443298340e-01
2.185319066047668457e-01
2.352148443460464478e-01
2.458770126104354858e-01
2.424579560756683350e-01
2.292302995920181274e-01
2.190857529640197754e-01
2.231955230236053467e-01
2.416779696941375732e-01
2.633228302001953125e-01
2.743487954139709473e-01
2.696192264556884766e-01
2.562007308006286621e-01
2.472517490386962891e-01
2.513538897037506104e-01
2.654035389423370361e-01
2.771416604518890381e-01
2.751902043819427490e-01
2.585949897766113281e-01
2.375077009201049805e-01
2.250936329364776611e-01
2.268388569355010986e-01
2.361763417720794678e-01
2.398944944143295288e-01
2.296124398708343506e-01
2.089614272117614746e-01
1.905486583709716797e-01
1.856464445590972900e-01
1.949637234210968018e-01
2.078650742769241333e-01
2.109257876873016357e-01
1.992635577917098999e-01
1.803100109100341797e-01
1.676559448242187500e-01
1.701497435569763184e-01
1.845942735671997070e-01
1.981535255908966064e-01
1.987779885530471802e-01
1.850286871194839478e-01
1.669311672449111938e-01
1.576882451772689819e-01
1.630663722753524780e-01
1.766321510076522827e-01
1.850600987672805786e-01
1.792864501476287842e-01
1.621093750000000000e-01
1.458826065063476562e-01
1.425220370292663574e-01
1.538966894149780273e-01
1.700413376092910767e-01
1.768335551023483276e-01
1.670814156532287598e-01
1.455003172159194946e-01
1.240083277225494385e-01
1.117385923862457275e-01
1.079608872532844543e-01
1.042988970875740051e-01
9.467257559299468994e-02
8.495402336120605469e-02
9.320279955863952637e-02
1.399346143007278442e-01
2.347345650196075439e-01
3.685149550437927246e-01
5.176825523376464844e-01
6.571401357650756836e-01
7.725200653076171875e-01
8.626506328582763672e-01
9.322958588600158691e-01
9.812593460083007812e-01
1.000000000000000000e+00
9.753472805023193359e-01
9.012283682823181152e-01
7.851949334144592285e-01
6.457558274269104004e-01
5.033171772956848145e-01
3.715091049671173096e-01
2.550303637981414795e-01
1.547241210937500000e-01
7.419387996196746826e-02
2.072085812687873840e-02
0.000000000000000000e+00
9.217271581292152405e-03
3.467111289501190186e-02
5.722724273800849915e-02
6.368553638458251953e-02
5.496145784854888916e-02
4.392400011420249939e-02
4.501256719231605530e-02
6.284411251544952393e-02
8.881229907274246216e-02
1.082386672496795654e-01
1.123219951987266541e-01
1.047196090221405029e-01
9.770575165748596191e-02
1.018380746245384216e-01
1.172327473759651184e-01
1.337701231241226196e-01
1.398490667343139648e-01
1.324165314435958862e-01
1.194958910346031189e-01
1.134600192308425903e-01
1.210435852408409119e-01
1.376803368330001831e-01
1.510996073484420776e-01
1.514971405267715454e-01
1.396947801113128662e-01
1.264279335737228394e-01
1.237576156854629517e-01
1.352747380733489990e-01
1.530375331640243530e-01
1.640059351921081543e-01
1.609069705009460449e-01
1.482040733098983765e-01
1.382046341896057129e-01
1.410256624221801758e-01
1.559895277023315430e-01
1.719565540552139282e-01
1.765058636665344238e-01
1.664726734161376953e-01
1.506487280130386353e-01
1.426942050457000732e-01
1.502390503883361816e-01
1.685242801904678345e-01
1.841794699430465698e-01
1.861901879310607910e-01
1.748167872428894043e-01
1.610592305660247803e-01
1.576773524284362793e-01
1.687518209218978882e-01
1.864059120416641235e-01
1.973172277212142944e-01
1.939222961664199829e-01
1.807475090026855469e-01
1.704132109880447388e-01
1.734452992677688599e-01
1.892961561679840088e-01
2.064909636974334717e-01
2.118289619684219360e-01
2.013486176729202271e-01
1.836001276969909668e-01
1.726195812225341797e-01
1.768159866333007812e-01
1.919482797384262085e-01
2.045127451419830322e-01
2.028837054967880249e-01
1.868899315595626831e-01
1.676194071769714355e-01
1.583372801542282104e-01
1.639726459980010986e-01
1.773276925086975098e-01
1.851131319999694824e-01
1.791645139455795288e-01
1.630918830633163452e-01
1.488980650901794434e-01
1.472813040018081665e-01
1.586967110633850098e-01
1.729256808757781982e-01
1.774031221866607666e-01
1.677624881267547607e-01
1.513262242078781128e-01
1.411091834306716919e-01
1.454236358404159546e-01
1.608217358589172363e-01
1.747814714908599854e-01
1.758854389190673828e-01
1.633205115795135498e-01
1.473526954650878906e-01
1.410496234893798828e-01
1.497564315795898438e-01
1.665782779455184937e-01
1.777247637510299683e-01
1.738988310098648071e-01
1.579965054988861084e-01
1.425461471080780029e-01
1.396890282630920410e-01
1.512686759233474731e-01
1.673130095005035400e-01
1.742151826620101929e-01
1.660650223493576050e-01
1.494019776582717896e-01
1.375304013490676880e-01
1.397778391838073730e-01
1.537464410066604614e-01
1.673504859209060669e-01
1.687379777431488037e-01
1.562438160181045532e-01
1.395031660795211792e-01
1.315586119890213013e-01
1.384113430976867676e-01
1.542107015848159790e-01
1.660734117031097412e-01
1.648923158645629883e-01
1.528025269508361816e-01
1.410864889621734619e-01
1.411124616861343384e-01
1.547581851482391357e-01
1.726471185684204102e-01
1.545209139585494995e-01
1.715863347053527832e-01
1.759203225374221802e-01
1.752447932958602905e-01
1.802914440631866455e-01
1.938288509845733643e-01
2.079913318157196045e-01
2.116943746805191040e-01
2.010872960090637207e-01
1.837360411882400513e-01
1.731055825948715210e-01
1.772883683443069458e-01
1.930832415819168091e-01
2.083398550748825073e-01
2.123751491308212280e-01
2.048514634370803833e-01
1.957315951585769653e-01
1.968733966350555420e-01
2.117743790149688721e-01
2.320849150419235229e-01
2.437774688005447388e-01
2.388145476579666138e-01
2.218565344810485840e-01
2.063501328229904175e-01
2.037489712238311768e-01
2.142565399408340454e-01
2.266759872436523438e-01
2.277007997035980225e-01
2.127970308065414429e-01
1.898341029882431030e-01
1.724842339754104614e-01
1.695311516523361206e-01
1.780014932155609131e-01
1.859295666217803955e-01
1.825671494007110596e-01
1.673407107591629028e-01
1.499928534030914307e-01
1.424315571784973145e-01
1.487068235874176025e-01
1.613844037055969238e-01
1.675751656293869019e-01
1.596859395503997803e-01
1.418323367834091187e-01
1.262914389371871948e-01
1.238253712654113770e-01
1.347983032464981079e-01
1.488238126039505005e-01
1.531834900379180908e-01
1.433443129062652588e-01
1.265709251165390015e-01
1.157307773828506470e-01
1.189528331160545349e-01
1.327581256628036499e-01
1.449808776378631592e-01
1.449985206127166748e-01
1.324863731861114502e-01
1.169935986399650574e-01
1.084254458546638489e-01
1.075640693306922913e-01
1.058728769421577454e-01
9.358280897140502930e-02
6.953225284814834595e-02
4.370167106389999390e-02
3.067340701818466187e-02
3.943005204200744629e-02
6.986219435930252075e-02
1.183048635721206665e-01
1.851406097412109375e-01
2.773049175739288330e-01
4.017782509326934814e-01
5.551762580871582031e-01
7.181469202041625977e-01
8.612549304962158203e-01
9.587128758430480957e-01
1.000000000000000000e+00
9.901159405708312988e-01
9.390066266059875488e-01
8.506509065628051758e-01
7.238008379936218262e-01
5.620411634445190430e-01
3.836706876754760742e-01
2.198109477758407593e-01
9.973395615816116333e-02
3.427508100867271423e-02
1.163900457322597504e-02
8.582233451306819916e-03
6.484804674983024597e-03
1.305379788391292095e-03
0.000000000000000000e+00
9.726975113153457642e-03
2.902895398437976837e-02
4.813253134489059448e-02
5.702567473053932190e-02
5.424205213785171509e-02
4.797297716140747070e-02
4.922961071133613586e-02
6.265699118375778198e-02
8.227730542421340942e-02
9.602998942136764526e-02
9.576040506362915039e-02
8.420249074697494507e-02
7.277751713991165161e-02
7.263684272766113281e-02
8.538947999477386475e-02
1.018562987446784973e-01
1.095900014042854309e-01
1.035135984420776367e-01
9.025458991527557373e-02
8.272919803857803345e-02
8.968384563922882080e-02
1.082324683666229248e-01
1.258656978607177734e-01
1.304058134555816650e-01
1.199606135487556458e-01
1.043240651488304138e-01
9.702012687921524048e-02
1.046447232365608215e-01
1.215717941522598267e-01
1.344442069530487061e-01
1.333316564559936523e-01
1.199287325143814087e-01
1.059536635875701904e-01
1.037816405296325684e-01
1.163310855627059937e-01
1.346161514520645142e-01
1.450536102056503296e-01
1.407572329044342041e-01
1.270225048065185547e-01
1.166870221495628357e-01
1.197759881615638733e-01
1.351143121719360352e-01
1.513087600469589233e-01
1.561087220907211304e-01
1.466307491064071655e-01
1.315993070602416992e-01
1.242384165525436401e-01
1.316239088773727417e-01
1.488010734319686890e-01
1.627208888530731201e-01
1.629788726568222046e-01
1.502652317285537720e-01
1.354773789644241333e-01
1.308668404817581177e-01
1.399056017398834229e-01
1.543353497982025146e-01
1.613327115774154663e-01
1.541751772165298462e-01
1.378532201051712036e-01
1.241486594080924988e-01
1.206081137061119080e-01
1.245906502008438110e-01
1.270276159048080444e-01
1.216324567794799805e-01
1.116188690066337585e-01
1.067887321114540100e-01
1.138060614466667175e-01
1.287757605314254761e-01
1.401874274015426636e-01
1.385842859745025635e-01
1.249126940965652466e-01
1.103125587105751038e-01
1.068320646882057190e-01
1.177375167608261108e-01
1.346487998962402344e-01
1.442699283361434937e-01
1.394370049238204956e-01
1.249136254191398621e-01
1.132108643651008606e-01
1.144876107573509216e-01
1.280573755502700806e-01
1.428800523281097412e-01
1.466333866119384766e-01
1.361846178770065308e-01
1.201107278466224670e-01
1.117315366864204407e-01
1.183879673480987549e-01
1.351737380027770996e-01
1.486367136240005493e-01
1.477898806333541870e-01
1.331679224967956543e-01
1.162397786974906921e-01
1.101738959550857544e-01
1.192467138171195984e-01
1.354622095823287964e-01
1.452269405126571655e-01
1.406481266021728516e-01
1.259856373071670532e-01
1.136044114828109741e-01
1.138678044080734253e-01
1.266396343708038330e-01
1.414968222379684448e-01
1.464157849550247192e-01
1.379061341285705566e-01
1.238459572196006775e-01
1.169151365756988525e-01
1.243645474314689636e-01
1.417710483074188232e-01
1.564519703388214111e-01
1.577985137701034546e-01
1.460624784231185913e-01
