1.135557889938354492e-01
1.147262901067733765e-01
1.147262901067733765e-01
1.139120236039161682e-01
1.138441711664199829e-01
1.162360683083534241e-01
1.221734061837196350e-01
1.309437006711959839e-01
1.401550471782684326e-01
1.472289562225341797e-01
1.504690498113632202e-01
1.499601304531097412e-01
1.476021707057952881e-01
1.455325782299041748e-01
1.453629434108734131e-01
1.472119987010955811e-01
1.499601304531097412e-01
1.522841751575469971e-01
1.533698588609695435e-01
1.533529013395309448e-01
1.531662940979003906e-01
1.537261009216308594e-01
1.553885489702224731e-01
1.578652709722518921e-01
1.605116277933120728e-01
1.623946130275726318e-01
1.626151353120803833e-01
1.600366383790969849e-01
1.540823429822921753e-01
1.452441960573196411e-01
1.352864354848861694e-01
1.265331059694290161e-01
1.206975504755973816e-01
1.181869059801101685e-01
1.176440641283988953e-01
1.168976575136184692e-01
1.146245077252388000e-01
1.109772846102714539e-01
1.075166687369346619e-01
1.057693958282470703e-01
1.062274202704429626e-01
1.072622090578079224e-01
1.068550795316696167e-01
1.041917577385902405e-01
1.003748998045921326e-01
9.781336039304733276e-02
9.845799207687377930e-02
1.022069901227951050e-01
1.068211495876312256e-01
1.095353588461875916e-01
1.088907346129417419e-01
1.057863608002662659e-01
1.025632321834564209e-01
1.016980782151222229e-01
1.034792810678482056e-01
1.058711782097816467e-01
1.057524308562278748e-01
1.005614995956420898e-01
8.953502029180526733e-02
7.380956411361694336e-02
5.567524582147598267e-02
3.725254163146018982e-02
2.032265253365039825e-02
6.734635215252637863e-03
0.000000000000000000e+00
6.446250248700380325e-03
3.645524010062217712e-02
1.019016429781913757e-01
2.118441313505172729e-01
3.660791516304016113e-01
5.507642030715942383e-01
7.384858131408691406e-01
8.945189714431762695e-01
9.876503348350524902e-01
1.000000000000000000e+00
9.320429563522338867e-01
8.018117547035217285e-01
6.380600333213806152e-01
4.704066216945648193e-01
3.215661048889160156e-01
2.034640163183212280e-01
1.185261830687522888e-01
6.408929824829101562e-02
3.687933459877967834e-02
3.470796719193458557e-02
5.430117622017860413e-02
8.882254362106323242e-02
1.276866495609283447e-01
1.592902392148971558e-01
1.760844141244888306e-01
1.769326031208038330e-01
1.666694879531860352e-01
1.524198949337005615e-01
1.406469941139221191e-01
1.340650320053100586e-01
1.321820616722106934e-01
1.327927559614181519e-01
1.337766498327255249e-01
1.345400214195251465e-01
1.358631998300552368e-01
1.385265290737152100e-01
1.423094570636749268e-01
1.459227502346038818e-01
1.477887630462646484e-01
1.476191282272338867e-01
1.468218266963958740e-01
1.469066441059112549e-01
1.484164297580718994e-01
1.505708396434783936e-01
1.522163152694702148e-01
1.528100520372390747e-01
1.531493365764617920e-01
1.543028652667999268e-01
1.569153070449829102e-01
1.604268103837966919e-01
1.638195663690567017e-01
1.663980782032012939e-01
1.680265963077545166e-01
1.689426451921463013e-01
1.696381568908691406e-01
1.705202758312225342e-01
1.713854372501373291e-01
1.719282716512680054e-01
1.720979213714599609e-01
1.724541485309600830e-01
1.738112568855285645e-01
1.765594035387039185e-01
1.804101914167404175e-01
1.842270493507385254e-01
1.869751811027526855e-01
1.885019242763519287e-01
1.895536780357360840e-01
1.912670284509658813e-01
1.940321326255798340e-01
1.975266784429550171e-01
2.013944238424301147e-01
2.053470015525817871e-01
2.096727639436721802e-01
2.150163650512695312e-01
2.215135097503662109e-01
2.284686714410781860e-01
2.346265465021133423e-01
2.390540987253189087e-01
2.419718801975250244e-01
2.444655597209930420e-01
2.476717233657836914e-01
2.518956959247589111e-01
2.564589679241180420e-01
2.602588534355163574e-01
2.625489830970764160e-01
2.637025117874145508e-01
2.646864354610443115e-01
2.662301361560821533e-01
2.686729133129119873e-01
2.715058922767639160e-01
2.737620770931243896e-01
2.749325633049011230e-01
2.748816907405853271e-01
2.740843892097473145e-01
2.728629708290100098e-01
2.716076672077178955e-01
2.701487839221954346e-01
2.677229344844818115e-01
2.637703716754913330e-01
2.577482163906097412e-01
2.496904134750366211e-01
2.400719225406646729e-01
2.295713275671005249e-01
2.190367877483367920e-01
2.093334943056106567e-01
2.011569291353225708e-01
1.949651390314102173e-01
1.906224042177200317e-01
1.870939284563064575e-01
1.831413656473159790e-01
1.774075925350189209e-01
1.699774414300918579e-01
1.616312414407730103e-01
1.540823429822921753e-01
1.485521346330642700e-01
1.451424062252044678e-01
1.427844464778900146e-01
1.400193423032760620e-01
1.361685544252395630e-01
1.316731423139572144e-01
1.279241442680358887e-01
1.256000995635986328e-01
1.245992332696914673e-01
1.237680017948150635e-01
1.220037639141082764e-01
1.191538423299789429e-01
1.161342859268188477e-01
1.143530830740928650e-01
1.144379004836082458e-01
1.159307211637496948e-01
1.177458465099334717e-01
1.186618953943252563e-01
1.187467128038406372e-01
1.188484951853752136e-01
1.200868561863899231e-01
1.096086651086807251e-01
1.070296391844749451e-01
1.071550101041793823e-01
1.110593676567077637e-01
1.178830489516258240e-01
1.255484968423843384e-01
1.318885982036590576e-01
1.362765282392501831e-01
1.398047804832458496e-01
1.436375081539154053e-01
1.480970680713653564e-01
1.519656181335449219e-01
1.538103371858596802e-01
1.535058617591857910e-01
1.524670869112014771e-01
1.526461839675903320e-01
1.547416448593139648e-01
1.574818640947341919e-01
1.587713807821273804e-01
1.575893312692642212e-01
1.547953784465789795e-01
1.527178287506103516e-01
1.531118452548980713e-01
1.557087898254394531e-01
1.581803560256958008e-01
1.580370664596557617e-01
1.540073454380035400e-01
1.475239545106887817e-01
1.410047411918640137e-01
1.363123506307601929e-01
1.334467679262161255e-01
1.309035569429397583e-01
1.275902241468429565e-01
1.235963106155395508e-01
1.197456791996955872e-01
1.169875562191009521e-01
1.151428297162055969e-01
1.129936426877975464e-01
1.093041971325874329e-01
1.038237661123275757e-01
9.784185886383056641e-02
9.352556616067886353e-02
9.279125928878784180e-02
9.545983374118804932e-02
9.957911819219589233e-02
1.027670800685882568e-01
1.036625802516937256e-01
1.027312651276588440e-01
1.018178537487983704e-01
1.023730635643005371e-01
1.042894273996353149e-01
1.064744368195533752e-01
1.074415668845176697e-01
1.066535338759422302e-01
1.045580729842185974e-01
1.018894985318183899e-01
9.812841564416885376e-02
9.121518582105636597e-02
7.857079058885574341e-02
5.946091189980506897e-02
3.667950257658958435e-02
1.565326377749443054e-02
2.185009419918060303e-03
0.000000000000000000e+00
1.115787588059902191e-02
3.999283537268638611e-02
9.510163962841033936e-02
1.871764957904815674e-01
3.230769336223602295e-01
4.970717430114746094e-01
6.865407228469848633e-01
8.560401201248168945e-01
9.686934947967529297e-01
1.000000000000000000e+00
9.463956356048583984e-01
8.262022137641906738e-01
6.702068448066711426e-01
5.094832777976989746e-01
3.653801381587982178e-01
2.474791854619979858e-01
1.569982916116714478e-01
9.239724278450012207e-02
5.252977460622787476e-02
3.657204285264015198e-02
4.198083654046058655e-02
6.289961189031600952e-02
9.112563729286193848e-02
1.187069043517112732e-01
1.400196999311447144e-01
1.528611034154891968e-01
1.576609611511230469e-01
1.557983309030532837e-01
1.494761407375335693e-01
1.410942971706390381e-01
1.337154060602188110e-01
1.298110485076904297e-01
1.299901455640792847e-01
1.326945424079895020e-01
1.351840198040008545e-01
1.354347616434097290e-01
1.333930343389511108e-01
1.308856457471847534e-01
1.297394037246704102e-01
1.309035569429397583e-01
1.336974948644638062e-01
1.366526335477828979e-01
1.389092803001403809e-01
1.403778940439224243e-01
1.421688944101333618e-01
1.449986547231674194e-01
1.487060040235519409e-01
1.522521674633026123e-01
1.542580872774124146e-01
1.545088142156600952e-01
1.537386924028396606e-01
1.534342318773269653e-01
1.547774672508239746e-01
1.574818640947341919e-01
1.609384864568710327e-01
1.640548110008239746e-01
1.663651764392852783e-01
1.685322821140289307e-01
1.711113154888153076e-01
1.744425594806671143e-01
1.775588840246200562e-01
1.789558529853820801e-01
1.782573610544204712e-01
1.771290451288223267e-01
1.780245304107666016e-01
1.826632022857666016e-01
1.900600045919418335e-01
1.970627754926681519e-01
2.009133994579315186e-01
2.010566890239715576e-01
1.996059864759445190e-01
1.991940587759017944e-01
2.015581578016281128e-01
2.060356438159942627e-01
2.107996791601181030e-01
2.141846567392349243e-01
2.159756422042846680e-01
2.174621671438217163e-01
2.200232893228530884e-01
2.243037521839141846e-01
2.292110621929168701e-01
2.335273623466491699e-01
2.359989285469055176e-01
2.368586063385009766e-01
2.371988892555236816e-01
2.385958582162857056e-01
2.413539886474609375e-01
2.450613379478454590e-01
2.484284043312072754e-01
2.506850659847259521e-01
2.515805363655090332e-01
2.519387602806091309e-01
2.525835037231445312e-01
2.535327374935150146e-01
2.537834644317626953e-01
2.524939477443695068e-01
2.496820986270904541e-01
2.462971210479736328e-01
2.432882636785507202e-01
2.407629638910293579e-01
2.377361804246902466e-01
2.335631698369979858e-01
2.284409403800964355e-01
2.234082520008087158e-01
2.195755392313003540e-01
2.168174088001251221e-01
2.136294394731521606e-01
2.080952823162078857e-01
1.989970505237579346e-01
1.869436800479888916e-01
1.740485429763793945e-01
1.628190129995346069e-01
1.548849344253540039e-01
1.500671654939651489e-01
1.470045596361160278e-01
1.444255411624908447e-01
1.416315883398056030e-01
1.387660056352615356e-01
1.363302618265151978e-01
1.344318091869354248e-01
1.324796229600906372e-01
1.291842013597488403e-01
1.240261495113372803e-01
1.175964921712875366e-01
1.116324886679649353e-01
1.082296073436737061e-01
1.082654222846031189e-01
1.106295362114906311e-01
1.132801994681358337e-01
1.143189743161201477e-01
1.136563122272491455e-01
1.126533523201942444e-01
1.126533523201942444e-01
1.142294257879257202e-01
1.161457896232604980e-01
1.169159114360809326e-01
1.328174173831939697e-01
1.336508244276046753e-01
1.331065595149993896e-01
1.306403577327728271e-01
1.272047013044357300e-01
1.249426007270812988e-01
1.261331737041473389e-01
1.316778659820556641e-01
1.401479691267013550e-01
1.482268869876861572e-01
1.530232131481170654e-01
1.531762927770614624e-01
1.506420671939849854e-01
1.490262746810913086e-01
1.511863321065902710e-01
1.572412550449371338e-01
1.646228432655334473e-01
1.701335161924362183e-01
1.722765564918518066e-01
1.722425371408462524e-01
1.724806576967239380e-01
1.742495149374008179e-01
1.765286177396774292e-01
1.768177598714828491e-01
1.730249226093292236e-01
1.654392331838607788e-01
1.563568264245986938e-01
1.485500484704971313e-01
1.431924551725387573e-01
1.389233767986297607e-01
1.332596242427825928e-01
1.251467019319534302e-01
1.161323264241218567e-01
1.094650924205780029e-01
1.076111942529678345e-01
1.097882464528083801e-01
1.129347756505012512e-01
1.133769899606704712e-01
1.100943982601165771e-01
1.049068793654441833e-01
1.008078902959823608e-01
9.975337982177734375e-02
1.011140421032905579e-01
1.026958078145980835e-01
1.027808487415313721e-01
1.012841239571571350e-01
9.971936047077178955e-02
9.983842074871063232e-02
1.020665019750595093e-01
1.051960214972496033e-01
1.072880327701568604e-01
1.071519702672958374e-01
1.053490936756134033e-01
1.039204001426696777e-01
1.044136434793472290e-01
1.071179509162902832e-01
1.095331236720085144e-01
1.076622158288955688e-01
9.830767661333084106e-02
8.056807518005371094e-02
5.724976584315299988e-02
3.311505913734436035e-02
1.299430243670940399e-02
7.313546957448124886e-04
0.000000000000000000e+00
1.590271294116973877e-02
5.687558650970458984e-02
1.331745833158493042e-01
2.521302700042724609e-01
4.119908213615417480e-01
5.972276329994201660e-01
7.794030308723449707e-01
9.238710999488830566e-01
1.000000000000000000e+00
9.923973083496093750e-01
9.053490757942199707e-01
7.610000967979431152e-01
5.909856557846069336e-01
4.253762960433959961e-01
2.849221825599670410e-01
1.788247227668762207e-01
1.071859821677207947e-01
6.599200516939163208e-02
5.058253183960914612e-02
5.648439377546310425e-02
7.820393145084381104e-02
1.081554517149925232e-01
1.382260322570800781e-01
1.612041890621185303e-01
1.734671294689178467e-01
1.752700060606002808e-01
1.695382297039031982e-01
1.604388058185577393e-01
1.518496423959732056e-01
1.458967626094818115e-01
1.430733948945999146e-01
1.419168263673782349e-01
1.406922340393066406e-01
1.383621096611022949e-01
1.356577873229980469e-01
1.339229494333267212e-01
1.343141496181488037e-01
1.366102546453475952e-01
1.397227644920349121e-01
1.421719491481781006e-01
1.434135586023330688e-01
1.438387632369995117e-01
1.446381509304046631e-01
1.468492150306701660e-01
1.507100909948348999e-01
1.555404365062713623e-01
1.599795967340469360e-01
1.633642315864562988e-01
1.653882116079330444e-01
1.664937436580657959e-01
1.670550256967544556e-01
1.670720279216766357e-01
1.666808426380157471e-01
1.659494787454605103e-01
1.654222309589385986e-01
1.656603515148162842e-01
1.667999029159545898e-01
1.683306396007537842e-01
1.694361716508865356e-01
1.699974536895751953e-01
1.709669232368469238e-01
1.737222522497177124e-01
1.788417398929595947e-01
1.850667595863342285e-01
1.900501698255538940e-01
1.922612488269805908e-01
1.920741498470306396e-01
1.916999816894531250e-01
1.933497786521911621e-01
1.974997818470001221e-01
2.029764503240585327e-01
2.078918218612670898e-01
2.112934738397598267e-01
2.140658199787139893e-01
2.179096788167953491e-01
2.241687178611755371e-01
2.323156744241714478e-01
2.400204092264175415e-01
2.448677569627761841e-01
2.461093664169311523e-01
2.448847740888595581e-01
2.431839406490325928e-01
2.422314882278442383e-01
2.418062686920166016e-01
2.412450015544891357e-01
2.405646741390228271e-01
2.407687753438949585e-01
2.429798394441604614e-01
2.473509609699249268e-01
2.527595758438110352e-01
2.575729191303253174e-01
2.606003880500793457e-01
2.613317370414733887e-01
2.597839832305908203e-01
2.567565143108367920e-01
2.531677782535552979e-01
2.497831434011459351e-01
2.467556744813919067e-01
2.435751408338546753e-01
2.393911033868789673e-01
2.337953895330429077e-01
2.269750833511352539e-01
2.199676781892776489e-01
2.135725766420364380e-01
2.078067809343338013e-01
2.025512307882308960e-01
1.972956955432891846e-01
1.918870657682418823e-01
1.860192120075225830e-01
1.799472719430923462e-01
1.738583147525787354e-01
1.678203940391540527e-01
1.619015187025070190e-01
1.563908457756042480e-01
1.515094786882400513e-01
1.475125402212142944e-01
1.438047438859939575e-01
1.398928463459014893e-01
1.351815611124038696e-01
1.297559291124343872e-01
1.249766126275062561e-01
1.221702545881271362e-01
1.216259896755218506e-01
1.224423870444297791e-01
1.227995604276657104e-01
1.218130812048912048e-01
1.200102046132087708e-01
1.189046651124954224e-01
1.196360215544700623e-01
1.217280402779579163e-01
1.235649287700653076e-01
1.239561215043067932e-01
1.230376735329627991e-01
1.223063170909881592e-01
1.237350106239318848e-01
1.207956820726394653e-01
1.203490570187568665e-01
1.158999577164649963e-01
1.110901162028312683e-01
1.103171035647392273e-01
1.155048608779907227e-01
1.251932531595230103e-01
1.350877732038497925e-01
1.417700201272964478e-01
1.440546959638595581e-01
1.436767727136611938e-01
1.432129740715026855e-01
1.444497853517532349e-01
1.475590020418167114e-01
1.513725221157073975e-01
1.548252999782562256e-01
1.576596647500991821e-01
1.605112105607986450e-01
1.640327125787734985e-01
1.679149419069290161e-01
1.706462353467941284e-01
1.711272150278091431e-01
1.690486818552017212e-01
1.657676845788955688e-01
1.633284091949462891e-01
1.623492687940597534e-01
1.615934371948242188e-01
1.585701107978820801e-01
1.514412313699722290e-01
1.406190991401672363e-01
1.291613727807998657e-01
1.207613274455070496e-01
1.174459755420684814e-01
1.182705163955688477e-01
1.203834116458892822e-01
1.211907789111137390e-01
1.198852509260177612e-01
1.174287945032119751e-01
1.153674349188804626e-01
1.137698814272880554e-01
1.115023866295814514e-01
1.076888740062713623e-01
1.032054126262664795e-01
1.003023311495780945e-01
1.008520275354385376e-01
1.046311855316162109e-01
1.090287566184997559e-01
1.113134324550628662e-01
1.103171035647392273e-01
1.074999123811721802e-01
1.057992950081825256e-01
1.072250679135322571e-01
1.117772385478019714e-01
1.170165240764617920e-01
1.195588707923889160e-01
1.168790981173515320e-01
1.083244606852531433e-01
9.468512982130050659e-02
7.776480168104171753e-02
5.928127095103263855e-02
4.029958322644233704e-02
2.219397388398647308e-02
7.489607203751802444e-03
0.000000000000000000e+00
5.290823522955179214e-03
3.093757480382919312e-02
8.649121969938278198e-02
1.810045689344406128e-01
3.185487985610961914e-01
4.918748140335083008e-01
6.795272827148437500e-01
8.486102819442749023e-01
9.639433622360229492e-01
1.000000000000000000e+00
9.503212571144104004e-01
8.298519253730773926e-01
6.687394976615905762e-01
5.010135173797607422e-01
3.524581789970397949e-01
2.352526932954788208e-01
1.494142264127731323e-01
8.915381133556365967e-02
5.002233013510704041e-02
3.157316148281097412e-02
3.504311665892601013e-02
5.828494951128959656e-02
9.404954314231872559e-02
1.306730359792709351e-01
1.576768457889556885e-01
1.700793653726577759e-01
1.697873324155807495e-01
1.629848480224609375e-01
1.557872742414474487e-01
1.509602516889572144e-01
1.479197442531585693e-01
1.448105275630950928e-01
1.406878083944320679e-01
1.362902373075485229e-01
1.333699822425842285e-01
1.325797885656356812e-01
1.333528012037277222e-01
1.343834847211837769e-01
1.348301023244857788e-01
1.352423876523971558e-01
1.365822702646255493e-01
1.396055966615676880e-01
1.439172774553298950e-01
1.483663767576217651e-01
1.521970629692077637e-01
1.553234606981277466e-01
1.584498584270477295e-01
1.620915979146957397e-01
1.658020466566085815e-01
1.682756692171096802e-01
1.678977608680725098e-01
1.648744344711303711e-01
1.614044755697250366e-01
1.604081541299819946e-01
1.637406796216964722e-01
1.701824367046356201e-01
1.764695793390274048e-01
1.793039441108703613e-01
1.777579337358474731e-01
1.740131229162216187e-01
1.719861179590225220e-01
1.745112836360931396e-01
1.814340204000473022e-01
1.900058388710021973e-01
1.964647620916366577e-01
1.985604763031005859e-01
1.971518844366073608e-01
1.951592415571212769e-01
1.955543309450149536e-01
1.992647796869277954e-01
2.052255421876907349e-01
2.117875367403030396e-01
2.179888039827346802e-01
2.239495664834976196e-01
2.291888594627380371e-01
2.325385659933090210e-01
2.327275276184082031e-01
2.298244386911392212e-01
2.258391380310058594e-01
2.238121479749679565e-01
2.258219718933105469e-01
2.316453158855438232e-01
2.384649813175201416e-01
2.432576417922973633e-01
2.445116341114044189e-01
2.433091700077056885e-01
2.419521063566207886e-01
2.425877004861831665e-01
2.452846467494964600e-01
2.485312819480895996e-01
2.506613433361053467e-01
2.512110471725463867e-01
2.511079907417297363e-01
2.511423230171203613e-01
2.509877383708953857e-01
2.495276033878326416e-01
2.457999736070632935e-01
2.400625348091125488e-01
2.340674102306365967e-01
2.292575687170028687e-01
2.264403700828552246e-01
2.248771786689758301e-01
2.227814644575119019e-01
2.185556739568710327e-01
2.117188274860382080e-01
2.037482410669326782e-01
1.971518844366073608e-01
1.938537061214447021e-01
1.934242695569992065e-01
1.930463463068008423e-01
1.892328262329101562e-01
1.801284849643707275e-01
1.674339473247528076e-01
1.550314426422119141e-01
1.462706625461578369e-01
1.414436399936676025e-01
1.383687704801559448e-01
1.344178318977355957e-01
1.293675005435943604e-01
1.249699369072914124e-01
1.233895644545555115e-01
1.251417249441146851e-01
1.278901994228363037e-01
1.289552301168441772e-01
1.272202581167221069e-01
1.239220798015594482e-01
1.220840364694595337e-01
1.239564344286918640e-01
1.294018626213073730e-01
1.362215280532836914e-01
1.416497677564620972e-01
1.441749334335327148e-01
1.443467140197753906e-01
1.438142061233520508e-01
1.439859867095947266e-01
1.446731090545654297e-01
1.126433536410331726e-01
1.091078594326972961e-01
1.047456562519073486e-01
1.025469675660133362e-01
1.042531505227088928e-01
1.096003651618957520e-01
1.168472543358802795e-01
1.244811117649078369e-01
1.312003135681152344e-01
1.364068090915679932e-01
1.396608799695968628e-01
1.405227631330490112e-01
1.387989819049835205e-01
1.353866159915924072e-01
1.328713148832321167e-01
1.341553479433059692e-01
1.407162398099899292e-01
1.509885340929031372e-01
1.607331335544586182e-01
1.656230241060256958e-01
1.637409478425979614e-01
1.569865643978118896e-01
1.494934260845184326e-01
1.442693322896957397e-01
1.415253579616546631e-01
1.387813985347747803e-01
1.334869414567947388e-01
1.253781765699386597e-01
1.167768910527229309e-01
1.105150207877159119e-01
1.079293638467788696e-01
1.077886447310447693e-01
1.076303347945213318e-01
1.053612902760505676e-01
1.010518521070480347e-01
9.635544568300247192e-02
9.289031475782394409e-02
9.102582186460494995e-02
8.967142552137374878e-02
8.720889687538146973e-02
8.282910287380218506e-02
7.737634330987930298e-02
7.299654930830001831e-02
7.160697877407073975e-02
7.364736497402191162e-02
7.760500907897949219e-02
8.103496581315994263e-02
8.279392123222351074e-02
8.342714607715606689e-02
8.476395159959793091e-02
8.787729591131210327e-02
9.204601496458053589e-02
9.487792849540710449e-02
9.452613443136215210e-02
9.092028439044952393e-02
8.613593131303787231e-02
8.216069638729095459e-02
7.917048037052154541e-02
7.473791390657424927e-02
6.516920775175094604e-02
4.925068467855453491e-02
2.923380024731159210e-02
1.072961371392011642e-02
0.000000000000000000e+00
1.671005389653146267e-03
1.970027387142181396e-02
6.026173382997512817e-02
1.325722932815551758e-01
2.453387677669525146e-01
3.997396826744079590e-01
5.831457376480102539e-01
7.678357958793640137e-01
9.177337884902954102e-01
1.000000000000000000e+00
9.967283606529235840e-01
9.111728668212890625e-01
7.654612064361572266e-01
5.919756293296813965e-01
4.214099645614624023e-01
2.746781110763549805e-01
1.610849201679229736e-01
8.149229735136032104e-02
3.363118320703506470e-02
1.486315298825502396e-02
2.193414419889450073e-02
4.844156652688980103e-02
8.441215753555297852e-02
1.187821030616760254e-01
1.429149359464645386e-01
1.541722416877746582e-01
1.544360816478729248e-01
1.481390297412872314e-01
1.389748752117156982e-01
1.293885856866836548e-01
1.211742758750915527e-01
1.162843853235244751e-01
1.164602860808372498e-01
1.214029416441917419e-01
1.281397342681884766e-01
1.323436349630355835e-01
1.310595870018005371e-01
1.250791549682617188e-01
1.187469214200973511e-01
1.177619099617004395e-01
1.244986951351165771e-01
1.364595741033554077e-01
1.473826766014099121e-01
1.512875556945800781e-01
1.458523869514465332e-01
1.337859779596328735e-01
1.211215108633041382e-01
1.131534501910209656e-01
1.112010106444358826e-01
1.133997067809104919e-01
1.167065352201461792e-01
1.195032745599746704e-01
1.226166188716888428e-01
1.276472210884094238e-01
1.351051926612854004e-01
1.433546692132949829e-01
1.497748494148254395e-01
1.526595354080200195e-01
1.527123004198074341e-01
1.521846204996109009e-01
1.531696319580078125e-01
1.562477946281433105e-01
1.603109836578369141e-01
1.643917560577392578e-01
1.682966351509094238e-01
1.728523224592208862e-01
1.788503527641296387e-01
1.856750845909118652e-01
1.916731148958206177e-01
1.951558440923690796e-01
1.954196840524673462e-01
1.935903728008270264e-01
1.920073181390762329e-01
1.928340196609497070e-01
1.964750587940216064e-01
2.011890560388565063e-01
2.037219405174255371e-01
2.019805759191513062e-01
1.967388987541198730e-01
1.914620399475097656e-01
1.901428252458572388e-01
1.940125226974487305e-01
2.013649493455886841e-01
2.082952260971069336e-01
2.120593786239624023e-01
2.122176885604858398e-01
2.104411423206329346e-01
2.091043442487716675e-01
2.092626541852951050e-01
2.109160572290420532e-01
2.136600315570831299e-01
2.177935689687728882e-01
2.237388342618942261e-01
2.314430475234985352e-01
2.388658225536346436e-01
2.428410649299621582e-01
2.408182621002197266e-01
2.332019954919815063e-01
2.235453426837921143e-01
2.169140875339508057e-01
2.171251624822616577e-01
2.242841124534606934e-01
2.345563918352127075e-01
2.423309683799743652e-01
2.431928515434265137e-01
2.355062216520309448e-01
2.212059348821640015e-01
2.040561437606811523e-01
1.866952776908874512e-01
1.695454865694046021e-01
1.515338122844696045e-01
1.320973783731460571e-01
1.123443320393562317e-01
9.489551931619644165e-02
8.209034055471420288e-02
7.452683895826339722e-02
7.100893557071685791e-02
6.988320499658584595e-02
7.048124819993972778e-02
7.273270934820175171e-02
7.658481597900390625e-02
8.056005090475082397e-02
8.281151205301284790e-02
8.216069638729095459e-02
7.901217043399810791e-02
7.581087946891784668e-02
7.510729879140853882e-02
7.823823392391204834e-02
8.451769500970840454e-02
9.164145588874816895e-02
9.744600206613540649e-02
1.005417555570602417e-01
1.009814962744712830e-01
1.002955064177513123e-01
1.002603247761726379e-01
1.021072268486022949e-01
1.057914942502975464e-01
1.096972599625587463e-01
1.155117228627204895e-01
1.194351688027381897e-01
1.194881871342658997e-01
1.173850819468498230e-01
1.166428104043006897e-01
1.201067492365837097e-01
1.268048733472824097e-01
1.331141889095306396e-01
1.355354040861129761e-01
1.338918060064315796e-01
1.313998848199844360e-01
1.323188990354537964e-01
1.378505975008010864e-01
1.455030590295791626e-01
1.508403569459915161e-01
1.514235734939575195e-01
1.485075056552886963e-01
1.463160365819931030e-01
1.482954174280166626e-01
1.539685130119323730e-01
1.595355421304702759e-01
1.607903391122817993e-01
1.564427465200424194e-01
1.490200310945510864e-01
1.427814066410064697e-01
1.401304304599761963e-01
1.400420665740966797e-01
1.387872695922851562e-01
1.336974054574966431e-01
1.249138414859771729e-01
1.152466312050819397e-01
1.080006361007690430e-01
1.046073883771896362e-01
1.044660061597824097e-01
1.050668954849243164e-01
1.045720428228378296e-01
1.022215187549591064e-01
9.895198047161102295e-02
9.580615907907485962e-02
9.294310957193374634e-02
8.951451629400253296e-02
8.445999771356582642e-02
7.792092859745025635e-02
7.182369381189346313e-02
6.927876174449920654e-02
7.221250236034393311e-02
7.972358912229537964e-02
8.811833709478378296e-02
9.347330778837203979e-02
9.377374500036239624e-02
9.053955972194671631e-02
8.698725700378417969e-02
8.566176891326904297e-02
8.573246747255325317e-02
8.350564539432525635e-02
7.486347854137420654e-02
5.853348225355148315e-02
3.764381632208824158e-02
1.822102069854736328e-02
5.319619085639715195e-03
0.000000000000000000e+00
3.534630523063242435e-04
5.743774585425853729e-03
2.202074788510799408e-02
6.229786202311515808e-02
1.416856646537780762e-01
2.687556445598602295e-01
4.384886026382446289e-01
6.295353770256042480e-01
8.088648319244384766e-01
9.411837458610534668e-01
1.000000000000000000e+00
9.754166603088378906e-01
8.763762712478637695e-01
7.262781858444213867e-01
5.545305013656616211e-01
3.879610598087310791e-01
2.454447448253631592e-01
1.371790170669555664e-01
6.521393358707427979e-02
2.620928548276424408e-02
1.406782958656549454e-02
2.228584513068199158e-02
4.451867192983627319e-02
7.466907054185867310e-02
1.062156483530998230e-01
1.330611705780029297e-01
1.501157581806182861e-01
1.551172584295272827e-01
1.499920487403869629e-01
1.398829966783523560e-01
1.304808855056762695e-01
1.255677491426467896e-01
1.255677491426467896e-01
1.282540708780288696e-01
1.306752860546112061e-01
1.313291937112808228e-01
1.302511394023895264e-01
1.284661442041397095e-01
1.264160573482513428e-01
1.235883533954620361e-01
1.194174960255622864e-01
1.146810874342918396e-01
1.109167039394378662e-01
1.101214140653610229e-01
1.130198091268539429e-01
1.183394342660903931e-01
1.238004341721534729e-01
1.274764537811279297e-01
1.292791068553924561e-01
1.308873742818832397e-01
1.341038793325424194e-01
1.396885961294174194e-01
1.463337093591690063e-01
1.512821912765502930e-01
1.524309366941452026e-01
1.495678871870040894e-01
1.447431147098541260e-01
1.411201208829879761e-01
1.411201208829879761e-01
1.450082212686538696e-01
1.511584818363189697e-01
1.574324369430541992e-01
1.626460254192352295e-01
1.665871441364288330e-01
1.701217740774154663e-01
1.737624406814575195e-01
1.770673096179962158e-01
1.790997236967086792e-01
1.794708669185638428e-01
1.794355213642120361e-01
1.813265532255172729e-01
1.871763616800308228e-01
1.965077817440032959e-01
2.066698521375656128e-01
2.140925675630569458e-01
2.165137976408004761e-01
2.142693102359771729e-01
2.099217027425765991e-01
2.063163816928863525e-01
2.050615847110748291e-01
2.063163816928863525e-01
2.095329016447067261e-01
2.144283652305603027e-01
2.207376807928085327e-01
2.282134145498275757e-01
2.358305454254150391e-01
2.419454604387283325e-01
2.448968738317489624e-01
2.444020360708236694e-01
2.419631332159042358e-01
2.399660646915435791e-01
2.402841895818710327e-01
2.427937686443328857e-01
2.455154359340667725e-01
2.461163252592086792e-01
2.434476763010025024e-01
2.384991943836212158e-01
2.336390763521194458e-01
2.305286079645156860e-01
2.292031198740005493e-01
2.278776317834854126e-01
2.246257662773132324e-01
2.188819944858551025e-01
2.119894623756408691e-01
2.056978195905685425e-01
2.008730471134185791e-01
1.965077817440032959e-01
1.911881715059280396e-01
1.836594045162200928e-01
1.740628778934478760e-01
1.636180430650711060e-01
1.540392041206359863e-01
1.462983638048171997e-01
1.405899226665496826e-01
1.362246572971343994e-01
1.320891380310058594e-01
1.276531815528869629e-01
1.230935081839561462e-01
1.185691803693771362e-01
1.139034703373908997e-01
1.081950441002845764e-01
1.005955860018730164e-01
9.220083802938461304e-02
8.504321426153182983e-02
8.179134875535964966e-02
8.313450962305068970e-02
8.751745522022247314e-02
9.232454746961593628e-02
9.580615907907485962e-02
9.769719094038009644e-02
9.935846179723739624e-02
1.021331474184989929e-01
1.063570305705070496e-01
1.103334948420524597e-01
1.119594201445579529e-01
1.099446862936019897e-01
1.056147590279579163e-01
1.263078004121780396e-01
1.284278780221939087e-01
1.279107779264450073e-01
1.267559528350830078e-01
1.280659139156341553e-01
1.324784159660339355e-01
1.379595696926116943e-01
1.412689387798309326e-01
1.409931629896163940e-01
1.392695307731628418e-01
1.395453065633773804e-01
1.435096561908721924e-01
1.495596170425415039e-01
1.540755331516265869e-01
1.547822207212448120e-01
1.526104360818862915e-01
1.516969203948974609e-01
1.556785106658935547e-01
1.648999452590942383e-01
1.754485815763473511e-01
1.821362674236297607e-01
1.822224557399749756e-01
1.772583872079849243e-01
1.719495952129364014e-01
1.701742559671401978e-01
1.717082858085632324e-01
1.725011616945266724e-01
1.682437956333160400e-01
1.579192280769348145e-01
1.450954079627990723e-01
1.355464756488800049e-01
1.326507776975631714e-01
1.350638568401336670e-01
1.375458985567092896e-01
1.352189928293228149e-01
1.271179169416427612e-01
1.169657185673713684e-01
1.103642061352729797e-01
1.102607846260070801e-01
1.149835363030433655e-01
1.199820712208747864e-01
1.212058514356613159e-01
1.181205511093139648e-01
1.139148846268653870e-01
1.123119071125984192e-01
1.144492104649543762e-01
1.176034584641456604e-01
1.181722581386566162e-01
1.145181581377983093e-01
1.088646426796913147e-01
1.059344708919525146e-01
1.092783138155937195e-01
1.181550249457359314e-01
1.276867091655731201e-01
1.322371065616607666e-01
1.289794445037841797e-01
1.192409098148345947e-01
1.062791943550109863e-01
9.197304397821426392e-02
7.570195198059082031e-02
5.586293712258338928e-02
3.321440145373344421e-02
1.216884702444076538e-02
0.000000000000000000e+00
4.653808195143938065e-03
3.349018469452857971e-02
9.392074495553970337e-02
1.919954568147659302e-01
3.299894928932189941e-01
5.004739761352539062e-01
6.832997202873229980e-01
8.480962514877319336e-01
9.618215560913085938e-01
1.000000000000000000e+00
9.555130600929260254e-01
8.410637974739074707e-01
6.844545602798461914e-01
5.181929469108581543e-01
3.678749203681945801e-01
2.463071197271347046e-01
1.551097035408020020e-01
9.124911576509475708e-02
5.308788642287254333e-02
4.141889512538909912e-02
5.598359182476997375e-02
8.987020701169967651e-02
1.298584938049316406e-01
1.619008183479309082e-01
1.772066801786422729e-01
1.761552691459655762e-01
1.659168899059295654e-01
1.549718230962753296e-01
1.479738652706146240e-01
1.446472555398941040e-01
1.421307474374771118e-01
1.383904665708541870e-01
1.338228434324264526e-01
1.308581978082656860e-01
1.316165924072265625e-01
1.362876445055007935e-01
1.427340209484100342e-01
1.482324153184890747e-01
1.509212851524353027e-01
1.516624391078948975e-01
1.524208486080169678e-01
1.546270847320556641e-01
1.576262116432189941e-01
1.590912938117980957e-01
1.575745046138763428e-01
1.539376378059387207e-01
1.515073180198669434e-01
1.535239666700363159e-01
1.601944267749786377e-01
1.680714339017868042e-01
1.726562976837158203e-01
1.714325100183486938e-01
1.664684414863586426e-01
1.623834371566772461e-01
1.631418317556381226e-01
1.687436401844024658e-01
1.753623932600021362e-01
1.787751913070678711e-01
1.775858849287033081e-01
1.746729463338851929e-01
1.746557056903839111e-01
1.797231882810592651e-01
1.881517469882965088e-01
1.955461353063583374e-01
1.984073668718338013e-01
1.966664940118789673e-01
1.939086765050888062e-01
1.944430023431777954e-01
1.997862756252288818e-01
2.077494561672210693e-01
2.142647802829742432e-01
2.169536501169204712e-01
2.167295813560485840e-01
2.170743048191070557e-01
2.210731357336044312e-01
2.286915928125381470e-01
2.365685850381851196e-01
2.408604323863983154e-01
2.405846565961837769e-01
2.384301126003265381e-01
2.388265579938888550e-01
2.445662468671798706e-01
2.545288503170013428e-01
2.643018364906311035e-01
2.696106433868408203e-01
2.693176269531250000e-01
2.663185000419616699e-01
2.655600905418395996e-01
2.697140574455261230e-01
2.778840661048889160e-01
2.855197489261627197e-01
2.887084782123565674e-01
2.867090702056884766e-01
2.825378775596618652e-01
2.795387506484985352e-01
2.787286341190338135e-01
2.777978777885437012e-01
2.735749781131744385e-01
2.651119530200958252e-01
2.547184526920318604e-01
2.459451556205749512e-01
2.405674159526824951e-01
2.374131679534912109e-01
2.329661995172500610e-01
2.243997454643249512e-01
2.118172198534011841e-01
1.985797286033630371e-01
1.887205541133880615e-01
1.841356903314590454e-01
1.829808503389358521e-01
1.812227517366409302e-01
1.754485815763473511e-01
1.655549257993698120e-01
1.547994613647460938e-01
1.473878324031829834e-01
1.447334438562393188e-01
1.449402719736099243e-01
1.441646367311477661e-01
1.395970135927200317e-01
1.319440901279449463e-01
1.249116659164428711e-01
1.221538484096527100e-01
1.243256255984306335e-01
1.284278780221939087e-01
1.302721649408340454e-01
1.274798810482025146e-01
1.214644014835357666e-01
1.158453524112701416e-01
1.133288517594337463e-01
1.133633255958557129e-01
1.130185946822166443e-01
1.096230447292327881e-01
1.034696698188781738e-01
9.822982549667358398e-02
9.798852354288101196e-02
1.042108312249183655e-01
2.098055928945541382e-01
2.135755419731140137e-01
2.205795347690582275e-01
2.212078720331192017e-01
2.110437601804733276e-01
1.943007111549377441e-01
1.804960072040557861e-01
1.763749271631240845e-01
1.804590523242950439e-01
1.843398809432983398e-01
1.794611215591430664e-01
1.642334461212158203e-01
1.458641290664672852e-01
1.341661810874938965e-01
1.338704973459243774e-01
1.411516815423965454e-01
1.464554965496063232e-01
1.428888291120529175e-01
1.313017457723617554e-01
1.196037828922271729e-01
1.157783865928649902e-01
1.213963627815246582e-01
1.311723887920379639e-01
1.378806978464126587e-01
1.389895081520080566e-01
1.378067731857299805e-01
1.388416588306427002e-01
1.423344165086746216e-01
1.432953923940658569e-01
1.354967504739761353e-01
1.180699318647384644e-01
9.757539629936218262e-02
8.369677513837814331e-02
8.136827498674392700e-02
8.724497258663177490e-02
9.197590500116348267e-02
8.815050125122070312e-02
7.600902020931243896e-02
6.344249099493026733e-02
5.961709097027778625e-02
6.710156798362731934e-02
8.001922070980072021e-02
8.866795152425765991e-02
8.676449209451675415e-02
7.695151120424270630e-02
6.769293546676635742e-02
6.719397008419036865e-02
7.597205787897109985e-02
8.724497258663177490e-02
9.186501801013946533e-02
8.591440320014953613e-02
7.382835447788238525e-02
6.479154527187347412e-02
6.506874412298202515e-02
7.283042371273040771e-02
7.953873276710510254e-02
7.676670700311660767e-02
6.246304139494895935e-02
4.243051633238792419e-02
2.565050311386585236e-02
1.678001135587692261e-02
1.400798372924327850e-02
1.142075657844543457e-02
5.802779458463191986e-03
2.032820833846926689e-03
1.334269624203443527e-02
5.638305842876434326e-02
1.432399451732635498e-01
2.763527631759643555e-01
4.459084868431091309e-01
6.315234899520874023e-01
8.052742481231689453e-01
9.369086623191833496e-01
1.000000000000000000e+00
9.801892638206481934e-01
8.813756704330444336e-01
7.256800532341003418e-01
5.470505356788635254e-01
3.794167637825012207e-01
2.454723566770553589e-01
1.510385870933532715e-01
8.861250430345535278e-02
4.610807076096534729e-02
1.602232456207275391e-02
0.000000000000000000e+00
4.268923774361610413e-03
3.167504444718360901e-02
7.508500665426254272e-02
1.184025704860687256e-01
1.452542841434478760e-01
1.484513580799102783e-01
1.335193663835525513e-01
1.145586967468261719e-01
1.038586646318435669e-01
1.044869869947433472e-01
1.103636920452117920e-01
1.121562719345092773e-01
1.053370758891105652e-01
9.417504072189331055e-02
8.781786262989044189e-02
9.260422736406326294e-02
1.063165292143821716e-01
1.197516247630119324e-01
1.236324682831764221e-01
1.167393550276756287e-01
1.065013334155082703e-01
1.028422564268112183e-01
1.098832041025161743e-01
1.222094893455505371e-01
1.298602968454360962e-01
1.266632229089736938e-01
1.158707886934280396e-01
1.075731813907623291e-01
1.101234480738639832e-01
1.235031038522720337e-01
1.394145488739013672e-01
1.474719047546386719e-01
1.434617042541503906e-01
1.322072744369506836e-01
1.237803101539611816e-01
1.254435181617736816e-01
1.362729221582412720e-01
1.481002420186996460e-01
1.527387648820877075e-01
1.483035236597061157e-01
1.410038471221923828e-01
1.396732628345489502e-01
1.480263173580169678e-01
1.616277396678924561e-01
1.711080670356750488e-01
1.704058200120925903e-01
1.617755740880966187e-01
1.539030224084854126e-01
1.549933403730392456e-01
1.661923378705978394e-01
1.808840930461883545e-01
1.902165859937667847e-01
1.900502592325210571e-01
1.837115585803985596e-01
1.790360659360885620e-01
1.816417872905731201e-01
1.905492246150970459e-01
1.990686058998107910e-01
2.004361301660537720e-01
1.934875845909118652e-01
1.841550916433334351e-01
1.811058521270751953e-01
1.887566596269607544e-01
2.029864042997360229e-01
2.147028446197509766e-01
2.162921279668807983e-01
2.080869376659393311e-01
1.980706751346588135e-01
1.956497579813003540e-01
2.037440836429595947e-01
2.172161489725112915e-01
2.267334461212158203e-01
2.266225665807723999e-01
2.190087288618087769e-01
2.117460072040557861e-01
2.115427255630493164e-01
2.182325571775436401e-01
2.252735048532485962e-01
2.246451824903488159e-01
2.139081954956054688e-01
1.979967504739761353e-01
1.858367770910263062e-01
1.831941157579421997e-01
1.881837695837020874e-01
1.930070966482162476e-01
1.900502592325210571e-01
1.779272556304931641e-01
1.626071780920028687e-01
1.521289199590682983e-01
1.501884907484054565e-01
1.529974937438964844e-01
1.527202874422073364e-01
1.439237147569656372e-01
1.284742802381515503e-01
1.144478097558021545e-01
1.089961528778076172e-01
1.130248382687568665e-01
1.198255494236946106e-01
1.209343597292900085e-01
1.127291545271873474e-01
9.964518249034881592e-02
9.040508419275283813e-02
9.103341400623321533e-02
9.982997924089431763e-02
1.090885549783706665e-01
1.112137809395790100e-01
1.048565953969955444e-01
9.569042176008224487e-02
9.162478148937225342e-02
9.648507088422775269e-02
1.065013334155082703e-01
1.135238036513328552e-01
1.116203442215919495e-01
1.022139266133308411e-01
9.312167018651962280e-02
9.120726585388183594e-02
9.437906742095947266e-02
9.845194220542907715e-02
1.017859429121017456e-01
1.040927022695541382e-01
1.068139597773551941e-01
1.115536391735076904e-01
1.185099780559539795e-01
1.259168535470962524e-01
1.311791539192199707e-01
1.325307786464691162e-01
1.301879584789276123e-01
1.266917735338211060e-01
1.249797269701957703e-01
1.271062791347503662e-01
1.327830702066421509e-01
1.401719301939010620e-01
1.470201313495635986e-01
1.516877263784408569e-01
1.537962406873703003e-01
1.540485471487045288e-01
1.529131829738616943e-01
1.507325768470764160e-01
1.475067138671875000e-01
1.436681151390075684e-01
1.395411640405654907e-01
1.359548717737197876e-01
1.330353766679763794e-01
1.301699429750442505e-01
1.257546544075012207e-01
1.183477789163589478e-01
1.079673469066619873e-01
9.646957367658615112e-02
8.691813051700592041e-02
8.167384564876556396e-02
8.091694116592407227e-02
8.298942446708679199e-02
8.574672788381576538e-02
8.821567893028259277e-02
9.100902825593948364e-02
9.473949670791625977e-02
9.839788079261779785e-02
9.947917610406875610e-02
9.565860033035278320e-02
8.706229925155639648e-02
7.711438089609146118e-02
6.990575045347213745e-02
6.860819458961486816e-02
7.284326851367950439e-02
7.981762290000915527e-02
8.614320307970046997e-02
8.985564857721328735e-02
9.113518148660659790e-02
9.153165668249130249e-02
9.209032356739044189e-02
9.203626215457916260e-02
8.897259086370468140e-02
8.026815950870513916e-02
6.534628570079803467e-02
4.642361402511596680e-02
2.782533504068851471e-02
1.328191161155700684e-02
4.036836326122283936e-03
0.000000000000000000e+00
3.081691917032003403e-03
2.160788699984550476e-02
6.986970454454421997e-02
1.626989096403121948e-01
3.064931929111480713e-01
4.912144839763641357e-01
6.891636252403259277e-01
8.619546294212341309e-01
9.728595018386840820e-01
1.000000000000000000e+00
9.423128962516784668e-01
8.185766339302062988e-01
6.586170196533203125e-01
4.930526912212371826e-01
3.449152112007141113e-01
2.258645892143249512e-01
1.381174623966217041e-01
7.779920101165771484e-02
4.017012566328048706e-02
2.211249060928821564e-02
2.227468416094779968e-02
3.856620192527770996e-02
6.626538932323455811e-02
9.814558178186416626e-02
1.257366389036178589e-01
1.427490115165710449e-01
1.470201313495635986e-01
1.407125741243362427e-01
1.287462413311004639e-01
1.164014488458633423e-01
1.074987798929214478e-01
1.033357977867126465e-01
1.032817289233207703e-01
1.057326644659042358e-01
1.088684275746345520e-01
1.118239685893058777e-01
1.140406206250190735e-01
1.155003681778907776e-01
1.159689277410507202e-01
1.150678545236587524e-01
1.128692179918289185e-01
1.098055467009544373e-01
1.072464808821678162e-01
1.065256148576736450e-01
1.084178835153579712e-01
1.122024208307266235e-01
1.159148663282394409e-01
1.183658018708229065e-01
1.196633577346801758e-01
1.216997951269149780e-01
1.263493597507476807e-01
1.338823884725570679e-01
1.421543061733245850e-01
1.479031890630722046e-01
1.487502008676528931e-01
1.449836939573287964e-01
1.395952403545379639e-01
1.360449790954589844e-01
1.362251937389373779e-01
1.391987651586532593e-01
1.423885822296142578e-01
1.441186517477035522e-01
1.449656635522842407e-01
1.472904533147811890e-01
1.532015353441238403e-01
1.622123271226882935e-01
1.710248887538909912e-01
1.763953268527984619e-01
1.771342009305953979e-01
1.753140240907669067e-01
1.743949204683303833e-01
1.768098175525665283e-01
1.819099336862564087e-01
1.869379580020904541e-01
1.894069164991378784e-01
1.892807632684707642e-01
1.890284568071365356e-01
1.914613693952560425e-01
1.976968348026275635e-01
2.061309516429901123e-01
2.138441801071166992e-01
2.192506641149520874e-01
2.227648794651031494e-01
2.260087579488754272e-01
2.293968200683593750e-01
2.318837940692901611e-01
2.315954566001892090e-01
2.281533330678939819e-01
2.239002287387847900e-01
2.223143279552459717e-01
2.255942672491073608e-01
2.324244379997253418e-01
2.385698109865188599e-01
2.402998805046081543e-01
2.364792972803115845e-01
2.298473566770553589e-01
2.242426425218582153e-01
2.216114848852157593e-01
2.202238291501998901e-01
2.166195064783096313e-01
2.082574963569641113e-01
1.958766579627990723e-01
1.833876967430114746e-01
1.748634874820709229e-01
1.713312566280364990e-01
1.700156778097152710e-01
1.670781522989273071e-01
1.602119356393814087e-01
1.506965309381484985e-01
1.418299078941345215e-01
1.362972855567932129e-01
1.330353766679763794e-01
1.289264559745788574e-01
1.207086071372032166e-01
1.084178835153579712e-01
9.573068469762802124e-02
8.684603869915008545e-02
8.398061245679855347e-02
8.504388481378555298e-02
8.563859760761260986e-02
8.212438225746154785e-02
7.450125366449356079e-02
6.667988002300262451e-02
6.311161071062088013e-02
6.554452329874038696e-02
7.192416489124298096e-02
7.783524692058563232e-02
7.978157699108123779e-02
7.761898636817932129e-02
7.392456382513046265e-02
7.170790433883666992e-02
7.177998870611190796e-02
7.233866304159164429e-02
7.113121449947357178e-02
6.752689927816390991e-02
6.367027759552001953e-02
9.957377612590789795e-02
9.572735428810119629e-02
9.298980981111526489e-02
9.449719637632369995e-02
1.013410463929176331e-01
1.122738942503929138e-01
1.238478049635887146e-01
1.329094171524047852e-01
1.381765902042388916e-01
1.406369060277938843e-01
1.423868536949157715e-01
1.445699632167816162e-01
1.467184126377105713e-01
1.474981009960174561e-01
1.463545709848403931e-01
1.443447172641754150e-01
1.436689943075180054e-01
1.459387391805648804e-01
1.505821645259857178e-01
1.555894315242767334e-01
1.586388498544692993e-01
1.589680463075637817e-01
1.573047339916229248e-01
1.548790633678436279e-01
1.522974520921707153e-01
1.492133885622024536e-01
1.448645144701004028e-01
1.393547654151916504e-01
1.338623613119125366e-01
1.292882412672042847e-01
1.257190406322479248e-01
1.221498399972915649e-01
1.169692948460578918e-01
1.099695041775703430e-01
1.027617976069450378e-01
9.787580370903015137e-02
9.773719310760498047e-02
1.022246852517127991e-01
1.086700409650802612e-01
1.134693995118141174e-01
1.142664104700088501e-01
1.111303642392158508e-01
1.064869388937950134e-01
1.031602993607521057e-01
1.022073626518249512e-01
1.024672538042068481e-01
1.016182675957679749e-01
9.846489876508712769e-02
9.397740662097930908e-02
9.077205508947372437e-02
9.127451479434967041e-02
9.517291933298110962e-02
9.995495527982711792e-02
1.025538817048072815e-01
1.016009449958801270e-01
9.744264930486679077e-02
9.129184484481811523e-02
8.311387151479721069e-02
7.143599539995193481e-02
5.540924519300460815e-02
3.622912243008613586e-02
1.784600503742694855e-02
4.764710087329149246e-03
0.000000000000000000e+00
5.336475092917680740e-03
2.411809563636779785e-02
6.454016268253326416e-02
1.388176530599594116e-01
2.571730613708496094e-01
4.193984270095825195e-01
6.087220311164855957e-01
7.927438020706176758e-01
9.334673285484313965e-01
1.000000000000000000e+00
9.797109961509704590e-01
8.813327550888061523e-01
7.305426597595214844e-01
5.594809055328369141e-01
3.960946798324584961e-01
2.574675977230072021e-01
1.505128592252731323e-01
7.597546279430389404e-02
3.307574987411499023e-02
2.068750374019145966e-02
3.515489771962165833e-02
6.797075271606445312e-02
1.065215915441513062e-01
1.388696432113647461e-01
1.580670922994613647e-01
1.639926582574844360e-01
1.610471904277801514e-01
1.540820598602294922e-01
1.459560543298721313e-01
1.375181972980499268e-01
1.292362660169601440e-01
1.224617063999176025e-01
1.188058778643608093e-01
1.188232004642486572e-01
1.214221343398094177e-01
1.240903735160827637e-01
1.250259876251220703e-01
1.243329420685768127e-01
1.238824576139450073e-01
1.261002123355865479e-01
1.316099464893341064e-01
1.386617273092269897e-01
1.445179879665374756e-01
1.473941355943679810e-01
1.475847214460372925e-01
1.471515744924545288e-01
1.481045186519622803e-01
1.508940309286117554e-01
1.542899757623672485e-01
1.567849516868591309e-01
1.578591763973236084e-01
1.581537127494812012e-01
1.587428152561187744e-01
1.601115763187408447e-01
1.615669876337051392e-01
1.616536080837249756e-01
1.600076258182525635e-01
1.578591763973236084e-01
1.574260145425796509e-01
1.607353240251541138e-01
1.679603606462478638e-01
1.769006848335266113e-01
1.846455037593841553e-01
1.889770627021789551e-01
1.900166273117065430e-01
1.894968450069427490e-01
1.894968450069427490e-01
1.911774873733520508e-01
1.940536350011825562e-01
1.975535452365875244e-01
2.017291635274887085e-01
2.073775082826614380e-01
2.155208289623260498e-01
2.254660725593566895e-01
2.344757020473480225e-01
2.394310086965560913e-01
2.390151768922805786e-01
2.346143126487731934e-01
2.296590209007263184e-01
2.272333502769470215e-01
2.284115254878997803e-01
2.318594455718994141e-01
2.354459762573242188e-01
2.382355034351348877e-01
2.411289811134338379e-01
2.458417117595672607e-01
2.531533837318420410e-01
2.618164718151092529e-01
2.692667543888092041e-01
2.730611860752105713e-01
2.727493345737457275e-01
2.700464427471160889e-01
2.679672837257385254e-01
2.686776518821716309e-01
2.721775472164154053e-01
2.769942581653594971e-01
2.810139358043670654e-01
2.829891145229339600e-01
2.825732827186584473e-01
2.800956368446350098e-01
2.754348814487457275e-01
2.676380872726440430e-01
2.565146684646606445e-01
2.429655492305755615e-01
2.292431890964508057e-01
2.177732288837432861e-01
2.092314064502716064e-01
2.023528963327407837e-01
1.949546039104461670e-01
1.860316097736358643e-01
1.767274290323257446e-01
1.694504171609878540e-01
1.657772511243820190e-01
1.649282723665237427e-01
1.644431352615356445e-01
1.614457070827484131e-01
1.547751128673553467e-01
1.456615179777145386e-01
1.367038637399673462e-01
1.302758306264877319e-01
1.275209635496139526e-01
1.272784024477005005e-01
1.276595741510391235e-01
1.266373246908187866e-01
1.238651350140571594e-01
1.205558255314826965e-01
1.182860881090164185e-01
1.178182810544967651e-01
1.185806393623352051e-01
1.189444884657859802e-01
1.173851266503334045e-01
1.139718592166900635e-01
1.102120727300643921e-01
1.080809459090232849e-01
1.086527109146118164e-01
1.111823394894599915e-01
