2.098055928945541382e-01
2.135755419731140137e-01
2.205795347690582275e-01
2.212078720331192017e-01
2.110437601804733276e-01
1.943007111549377441e-01
1.804960072040557861e-01
1.763749271631240845e-01
1.804590523242950439e-01
1.843398809432983398e-01
1.794611215591430664e-01
1.642334461212158203e-01
1.458641290664672852e-01
1.341661810874938965e-01
1.338704973459243774e-01
1.411516815423965454e-01
1.464554965496063232e-01
1.428888291120529175e-01
1.313017457723617554e-01
1.196037828922271729e-01
1.157783865928649902e-01
1.213963627815246582e-01
1.311723887920379639e-01
1.378806978464126587e-01
1.389895081520080566e-01
1.378067731857299805e-01
1.388416588306427002e-01
1.423344165086746216e-01
1.432953923940658569e-01
1.354967504739761353e-01
1.180699318647384644e-01
9.757539629936218262e-02
8.369677513837814331e-02
8.136827498674392700e-02
8.724497258663177490e-02
9.197590500116348267e-02
8.815050125122070312e-02
7.600902020931243896e-02
6.344249099493026733e-02
5.961709097027778625e-02
6.710156798362731934e-02
8.001922070980072021e-02
8.866795152425765991e-02
8.676449209451675415e-02
7.695151120424270630e-02
6.769293546676635742e-02
6.719397008419036865e-02
7.597205787897109985e-02
8.724497258663177490e-02
9.186501801013946533e-02
8.591440320014953613e-02
7.382835447788238525e-02
6.479154527187347412e-02
6.506874412298202515e-02
7.283042371273040771e-02
7.953873276710510254e-02
7.676670700311660767e-02
6.246304139494895935e-02
4.243051633238792419e-02
2.565050311386585236e-02
1.678001135587692261e-02
1.400798372924327850e-02
1.142075657844543457e-02
5.802779458463191986e-03
2.032820833846926689e-03
1.334269624203443527e-02
5.638305842876434326e-02
1.432399451732635498e-01
2.763527631759643555e-01
4.459084868431091309e-01
6.315234899520874023e-01
8.052742481231689453e-01
9.369086623191833496e-01
1.000000000000000000e+00
9.801892638206481934e-01
8.813756704330444336e-01
7.256800532341003418e-01
5.470505356788635254e-01
3.794167637825012207e-01
2.454723566770553589e-01
1.510385870933532715e-01
8.861250430345535278e-02
4.610807076096534729e-02
1.602232456207275391e-02
0.000000000000000000e+00
4.268923774361610413e-03
3.167504444718360901e-02
7.508500665426254272e-02
1.184025704860687256e-01
1.452542841434478760e-01
1.484513580799102783e-01
1.335193663835525513e-01
1.145586967468261719e-01
1.038586646318435669e-01
1.044869869947433472e-01
1.103636920452117920e-01
1.121562719345092773e-01
1.053370758891105652e-01
9.417504072189331055e-02
8.781786262989044189e-02
9.260422736406326294e-02
1.063165292143821716e-01
1.197516247630119324e-01
1.236324682831764221e-01
1.167393550276756287e-01
1.065013334155082703e-01
1.028422564268112183e-01
1.098832041025161743e-01
1.222094893455505371e-01
1.298602968454360962e-01
1.266632229089736938e-01
1.158707886934280396e-01
1.075731813907623291e-01
1.101234480738639832e-01
1.235031038522720337e-01
1.394145488739013672e-01
1.474719047546386719e-01
1.434617042541503906e-01
1.322072744369506836e-01
1.237803101539611816e-01
1.254435181617736816e-01
1.362729221582412720e-01
1.481002420186996460e-01
1.527387648820877075e-01
1.483035236597061157e-01
1.410038471221923828e-01
1.396732628345489502e-01
1.480263173580169678e-01
1.616277396678924561e-01
1.711080670356750488e-01
1.704058200120925903e-01
1.617755740880966187e-01
1.539030224084854126e-01
1.549933403730392456e-01
1.661923378705978394e-01
1.808840930461883545e-01
1.902165859937667847e-01
1.900502592325210571e-01
1.837115585803985596e-01
1.790360659360885620e-01
1.816417872905731201e-01
1.905492246150970459e-01
1.990686058998107910e-01
2.004361301660537720e-01
1.934875845909118652e-01
1.841550916433334351e-01
1.811058521270751953e-01
1.887566596269607544e-01
2.029864042997360229e-01
2.147028446197509766e-01
2.162921279668807983e-01
2.080869376659393311e-01
1.980706751346588135e-01
1.956497579813003540e-01
2.037440836429595947e-01
2.172161489725112915e-01
2.267334461212158203e-01
2.266225665807723999e-01
2.190087288618087769e-01
2.117460072040557861e-01
2.115427255630493164e-01
2.182325571775436401e-01
2.252735048532485962e-01
2.246451824903488159e-01
2.139081954956054688e-01
1.979967504739761353e-01
1.858367770910263062e-01
1.831941157579421997e-01
1.881837695837020874e-01
1.930070966482162476e-01
1.900502592325210571e-01
1.779272556304931641e-01
1.626071780920028687e-01
1.521289199590682983e-01
1.501884907484054565e-01
1.529974937438964844e-01
1.527202874422073364e-01
1.439237147569656372e-01
1.284742802381515503e-01
1.144478097558021545e-01
1.089961528778076172e-01
1.130248382687568665e-01
1.198255494236946106e-01
1.209343597292900085e-01
1.127291545271873474e-01
9.964518249034881592e-02
9.040508419275283813e-02
9.103341400623321533e-02
9.982997924089431763e-02
1.090885549783706665e-01
1.112137809395790100e-01
1.048565953969955444e-01
9.569042176008224487e-02
9.162478148937225342e-02
9.648507088422775269e-02
1.065013334155082703e-01
1.135238036513328552e-01
1.116203442215919495e-01
1.022139266133308411e-01
9.312167018651962280e-02
2.465686649084091187e-01
2.320137023925781250e-01
2.259897142648696899e-01
2.282622456550598145e-01
2.319054901599884033e-01
2.288033217191696167e-01
2.163585573434829712e-01
1.995671391487121582e-01
1.869780868291854858e-01
1.838218122720718384e-01
1.885472089052200317e-01
1.951663792133331299e-01
1.976733654737472534e-01
1.928938627243041992e-01
1.812967807054519653e-01
1.649021506309509277e-01
1.470646560192108154e-01
1.322932690382003784e-01
1.255478411912918091e-01
1.289746612310409546e-01
1.391829699277877808e-01
1.484353840351104736e-01
1.493912935256958008e-01
1.414194256067276001e-01
1.306159198284149170e-01
1.254576593637466431e-01
1.295337677001953125e-01
1.382992118597030640e-01
1.423572897911071777e-01
1.352511495351791382e-01
1.186942011117935181e-01
1.015059947967529297e-01
9.277662634849548340e-02
9.441789239645004272e-02
9.979258477687835693e-02
9.939579665660858154e-02
8.850211650133132935e-02
7.138606160879135132e-02
5.823789164423942566e-02
5.679502338171005249e-02
6.635404378175735474e-02
7.834791392087936401e-02
8.332581818103790283e-02
7.849220186471939087e-02
6.996122002601623535e-02
6.707548350095748901e-02
7.441608607769012451e-02
8.824961632490158081e-02
9.930561482906341553e-02
1.004959866404533386e-01
9.239786863327026367e-02
8.267652988433837891e-02
7.964649796485900879e-02
8.550816029310226440e-02
9.452610462903976440e-02
9.741184860467910767e-02
8.823157846927642822e-02
6.895121186971664429e-02
4.788529127836227417e-02
3.314996883273124695e-02
2.638650871813297272e-02
2.279736660420894623e-02
1.630444638431072235e-02
5.951844155788421631e-03
0.000000000000000000e+00
1.361709833145141602e-02
6.222382560372352600e-02
1.550004482269287109e-01
2.912435829639434814e-01
4.606547057628631592e-01
6.437911391258239746e-01
8.140680193901062012e-01
9.417620897293090820e-01
1.000000000000000000e+00
9.741365313529968262e-01
8.680674433708190918e-01
7.055820822715759277e-01
5.225358605384826660e-01
3.538100719451904297e-01
2.213905602693557739e-01
1.297321617603302002e-01
7.044818997383117676e-02
3.183334693312644958e-02
8.296510204672813416e-03
1.821625046432018280e-03
1.646676845848560333e-02
5.050049722194671631e-02
9.306520223617553711e-02
1.287221610546112061e-01
1.458021402359008789e-01
1.430787295103073120e-01
1.297321617603302002e-01
1.183695569634437561e-01
1.159166768193244934e-01
1.203895732760429382e-01
1.242853254079818726e-01
1.212372630834579468e-01
1.120930686593055725e-01
1.040490567684173584e-01
1.040670946240425110e-01
1.129948571324348450e-01
1.240147873759269714e-01
1.286680549383163452e-01
1.235278174281120300e-01
1.134818270802497864e-01
1.082514226436614990e-01
1.141311228275299072e-01
1.288664489984512329e-01
1.438001692295074463e-01
1.498782634735107422e-01
1.455676853656768799e-01
1.371629536151885986e-01
1.342411339282989502e-01
1.411669254302978516e-01
1.539724022150039673e-01
1.632248163223266602e-01
1.623049825429916382e-01
1.526377499103546143e-01
1.432951539754867554e-01
1.433673053979873657e-01
1.542429476976394653e-01
1.691225469112396240e-01
1.775633543729782104e-01
1.744070649147033691e-01
1.634412407875061035e-01
1.543150842189788818e-01
1.550184935331344604e-01
1.654251962900161743e-01
1.780863851308822632e-01
1.843448430299758911e-01
1.813508868217468262e-01
1.742086708545684814e-01
1.716115027666091919e-01
1.788078248500823975e-01
1.927856504917144775e-01
2.055189758539199829e-01
2.096492052078247070e-01
2.049598693847656250e-01
1.979078352451324463e-01
1.968978196382522583e-01
2.049959450960159302e-01
2.184146493673324585e-01
2.289115339517593384e-01
2.307512015104293823e-01
2.250518500804901123e-01
2.190819680690765381e-01
2.200018018484115601e-01
2.286951094865798950e-01
2.394444942474365234e-01
2.441698908805847168e-01
2.390477061271667480e-01
2.280999124050140381e-01
2.199476957321166992e-01
2.207412719726562500e-01
2.293083220720291138e-01
2.385427057743072510e-01
2.413202226161956787e-01
2.359815984964370728e-01
2.282983064651489258e-01
2.259716838598251343e-01
2.319776415824890137e-01
2.417891621589660645e-01
2.469474226236343384e-01
2.417350560426712036e-01
2.281179577112197876e-01
2.137974500656127930e-01
2.062223851680755615e-01
2.067814916372299194e-01
2.098475992679595947e-01
2.073766738176345825e-01
1.951663792133331299e-01
1.768419146537780762e-01
1.609342545270919800e-01
1.543872356414794922e-01
1.569663584232330322e-01
1.614753305912017822e-01
1.592028141021728516e-01
1.473532319068908691e-01
1.315537989139556885e-01
1.212192252278327942e-01
1.218865513801574707e-01
1.302371770143508911e-01
1.370547413825988770e-01
1.343854218721389771e-01
1.220488771796226501e-01
1.081973090767860413e-01
1.024618968367576599e-01
1.079087406396865845e-01
1.189467012882232666e-01
1.258003413677215576e-01
1.226440593600273132e-01
1.127603948116302490e-01
1.053296029567718506e-01
1.079808846116065979e-01
1.198124289512634277e-01
1.323834359645843506e-01
1.363874077796936035e-01
1.290648430585861206e-01
1.166200712323188782e-01
1.091892868280410767e-01
1.496273130178451538e-01
1.247222796082496643e-01
1.048699170351028442e-01
9.659212827682495117e-02
1.024510860443115234e-01
1.176091134548187256e-01
1.322296261787414551e-01
1.376406550407409668e-01
1.331792473793029785e-01
1.258152425289154053e-01
1.250447928905487061e-01
1.344692856073379517e-01
1.495556533336639404e-01
1.608256250619888306e-01
1.617394089698791504e-01
1.541245579719543457e-01
1.466351300477981567e-01
1.475668251514434814e-01
1.579409390687942505e-01
1.705547124147415161e-01
1.760732531547546387e-01
1.708951443433761597e-01
1.598939299583435059e-01
1.525119990110397339e-01
1.546620726585388184e-01
1.641403287649154663e-01
1.722568571567535400e-01
1.709309816360473633e-01
1.587472259998321533e-01
1.417078822851181030e-01
1.283594965934753418e-01
1.229484677314758301e-01
1.227872148156166077e-01
1.213359162211418152e-01
1.135239750146865845e-01
1.010176986455917358e-01
9.085859358310699463e-02
8.976563811302185059e-02
9.786425530910491943e-02
1.085608825087547302e-01
1.133268848061561584e-01
1.084712967276573181e-01
9.795384854078292847e-02
9.069734066724777222e-02
9.275782853364944458e-02
1.026840135455131531e-01
1.118218302726745605e-01
1.120547577738761902e-01
1.020210683345794678e-01
8.892352879047393799e-02
8.272414654493331909e-02
8.815308660268783569e-02
1.011610403656959534e-01
1.120368391275405884e-01
1.131656244397163391e-01
1.047624200582504272e-01
9.395828843116760254e-02
8.786641061305999756e-02
8.668386936187744141e-02
8.376334607601165771e-02
7.102414965629577637e-02
4.667454957962036133e-02
1.859815046191215515e-02
0.000000000000000000e+00
1.881315838545560837e-03
2.825557254254817963e-02
7.828065752983093262e-02
1.526911705732345581e-01
2.565039694309234619e-01
3.953450918197631836e-01
5.658997893333435059e-01
7.475632429122924805e-01
9.041245579719543457e-01
9.966315627098083496e-01
1.000000000000000000e+00
9.155557751655578613e-01
7.702823877334594727e-01
6.032035946846008301e-01
4.473948180675506592e-01
3.187845051288604736e-01
2.165484130382537842e-01
1.342901140451431274e-01
7.037913054227828979e-02
3.063857182860374451e-02
2.194868400692939758e-02
4.296566918492317200e-02
8.191786706447601318e-02
1.213717460632324219e-01
1.482835263013839722e-01
1.600372642278671265e-01
1.631011217832565308e-01
1.644807606935501099e-01
1.660395562648773193e-01
1.639790683984756470e-01
1.542678922414779663e-01
1.383752524852752686e-01
1.240951791405677795e-01
1.198846101760864258e-01
1.283236593008041382e-01
1.435533612966537476e-01
1.555041968822479248e-01
1.572421640157699585e-01
1.499856710433959961e-01
1.417974680662155151e-01
1.411345303058624268e-01
1.497169137001037598e-01
1.611123085021972656e-01
1.660933196544647217e-01
1.597326695919036865e-01
1.464559584856033325e-01
1.366014480590820312e-01
1.385723501443862915e-01
1.519744843244552612e-01
1.683329790830612183e-01
1.770586967468261719e-01
1.739590018987655640e-01
1.641761660575866699e-01
1.574213504791259766e-01
1.599476784467697144e-01
1.695334315299987793e-01
1.782591491937637329e-01
1.794775277376174927e-01
1.735469102859497070e-01
1.679029613733291626e-01
1.701605319976806641e-01
1.815201044082641602e-01
1.951014101505279541e-01
2.018024772405624390e-01
1.970544010400772095e-01
1.855335831642150879e-01
1.776499748229980469e-01
1.810542494058609009e-01
1.949401497840881348e-01
2.107611298561096191e-01
2.187701612710952759e-01
2.154912948608398438e-01
2.065863907337188721e-01
2.021608203649520874e-01
2.081631124019622803e-01
2.219952642917633057e-01
2.349853068590164185e-01
2.392675429582595825e-01
2.339102774858474731e-01
2.256862372159957886e-01
2.229627966880798340e-01
2.295922040939331055e-01
2.412026077508926392e-01
2.499283254146575928e-01
2.503225207328796387e-01
2.442664653062820435e-01
2.389808595180511475e-01
2.409517616033554077e-01
2.505016922950744629e-01
2.612162232398986816e-01
2.653192877769470215e-01
2.598007619380950928e-01
2.488532960414886475e-01
2.412742823362350464e-01
2.427255809307098389e-01
2.518633902072906494e-01
2.611087262630462646e-01
2.627212703227996826e-01
2.547122538089752197e-01
2.426718324422836304e-01
2.350032180547714233e-01
2.358274161815643311e-01
2.415609508752822876e-01
2.441768795251846313e-01
2.377804070711135864e-01
2.235899120569229126e-01
2.095427513122558594e-01
2.030566930770874023e-01
2.051888555288314819e-01
2.098831832408905029e-01
2.088977247476577759e-01
1.984877735376358032e-01
1.823263764381408691e-01
1.684763133525848389e-01
1.632982194423675537e-01
1.662187278270721436e-01
1.704113781452178955e-01
1.686196476221084595e-01
1.587292999029159546e-01
1.457751095294952393e-01
1.382140070199966431e-01
1.402924060821533203e-01
1.488389521837234497e-01
1.557550281286239624e-01
1.544829010963439941e-01
1.452734172344207764e-01
1.353293210268020630e-01
1.323371380567550659e-01
1.383394300937652588e-01
1.480326801538467407e-01
1.529957652091979980e-01
1.485343724489212036e-01
1.376406550407409668e-01
1.288791000843048096e-01
1.293986886739730835e-01
1.393069624900817871e-01
7.391440123319625854e-02
8.703149855136871338e-02
9.655286371707916260e-02
9.642444550991058350e-02
8.888440579175949097e-02
8.248179405927658081e-02
8.528866618871688843e-02
9.791043400764465332e-02
1.134491562843322754e-01
1.228787899017333984e-01
1.221633106470108032e-01
1.150452196598052979e-01
1.100185289978981018e-01
1.128254085779190063e-01
1.221633106470108032e-01
1.309325098991394043e-01
1.326569914817810059e-01
1.269515156745910645e-01
1.203470975160598755e-01
1.209891960024833679e-01
1.316112875938415527e-01
1.465262621641159058e-01
1.560659706592559814e-01
1.537911146879196167e-01
1.415546089410781860e-01
1.281990110874176025e-01
1.221816614270210266e-01
1.246399655938148499e-01
1.287310421466827393e-01
1.253737956285476685e-01
1.109174638986587524e-01
9.090241789817810059e-02
7.611586898565292358e-02
7.424461841583251953e-02
8.382102102041244507e-02
9.554385393857955933e-02
9.913959354162216187e-02
9.154451638460159302e-02
7.868425548076629639e-02
7.061219215393066406e-02
7.299712300300598145e-02
8.279366791248321533e-02
9.123264253139495850e-02
9.099414944648742676e-02
8.239006251096725464e-02
7.321726530790328979e-02
7.222660630941390991e-02
8.171127736568450928e-02
9.541543573141098022e-02
1.033223867416381836e-01
9.934139251708984375e-02
8.611422032117843628e-02
7.314388453960418701e-02
6.919958442449569702e-02
7.516189664602279663e-02
8.350914716720581055e-02
8.374764025211334229e-02
7.077730447053909302e-02
4.872589930891990662e-02
2.731659077107906342e-02
1.454805582761764526e-02
1.054871641099452972e-02
9.044378064572811127e-03
4.421288147568702698e-03
0.000000000000000000e+00
1.065879035741090775e-02
5.677961558103561401e-02
1.531490236520767212e-01
3.007026314735412598e-01
4.842136204242706299e-01
6.762736439704895020e-01
8.445394635200500488e-01
9.593278169631958008e-01
1.000000000000000000e+00
9.594562649726867676e-01
8.462272286415100098e-01
6.830615401268005371e-01
5.012933611869812012e-01
3.315966129302978516e-01
1.961327493190765381e-01
1.031939685344696045e-01
4.826726019382476807e-02
2.060210332274436951e-02
1.018180511891841888e-02
1.295198965817689896e-02
2.973820827901363373e-02
6.057715415954589844e-02
9.967161715030670166e-02
1.353904902935028076e-01
1.557357460260391235e-01
1.555522978305816650e-01
1.398668140172958374e-01
1.208240836858749390e-01
1.096516177058219910e-01
1.096332743763923645e-01
1.154671683907508850e-01
1.183290854096412659e-01
1.133941188454627991e-01
1.037993729114532471e-01
9.770863503217697144e-02
1.014144420623779297e-01
1.137610301375389099e-01
1.267863959074020386e-01
1.318864822387695312e-01
1.265662610530853271e-01
1.168614327907562256e-01
1.122383475303649902e-01
1.177236810326576233e-01
1.297400444746017456e-01
1.389128416776657104e-01
1.376469880342483521e-01
1.266396343708038330e-01
1.145682334899902344e-01
1.115412116050720215e-01
1.206773221492767334e-01
1.359958946704864502e-01
1.472600847482681274e-01
1.479021757841110229e-01
1.404538750648498535e-01
1.341796815395355225e-01
1.369682103395462036e-01
1.490579545497894287e-01
1.628538370132446289e-01
1.691096872091293335e-01
1.648351699113845825e-01
1.555339545011520386e-01
1.511126607656478882e-01
1.572400927543640137e-01
1.708708703517913818e-01
1.827588081359863281e-01
1.843365281820297241e-01
1.751637309789657593e-01
1.635326296091079712e-01
1.598635017871856689e-01
1.685409694910049438e-01
1.849419325590133667e-01
1.990496963262557983e-01
2.035260200500488281e-01
1.987745165824890137e-01
1.925003230571746826e-01
1.929589658975601196e-01
2.023335546255111694e-01
2.155056893825531006e-01
2.240180522203445435e-01
2.237428724765777588e-01
2.175053656101226807e-01
2.133225649595260620e-01
2.171934843063354492e-01
2.282191962003707886e-01
2.394466996192932129e-01
2.434827238321304321e-01
2.386211454868316650e-01
2.305857688188552856e-01
2.280173897743225098e-01
2.348052561283111572e-01
2.470601201057434082e-01
2.558843493461608887e-01
2.541048228740692139e-01
2.421801835298538208e-01
2.284209877252578735e-01
2.220367342233657837e-01
2.260177284479141235e-01
2.346034646034240723e-01
2.377772480249404907e-01
2.294850349426269531e-01
2.120200395584106445e-01
1.947201341390609741e-01
1.856574118137359619e-01
1.856940984725952148e-01
1.879872977733612061e-01
1.839879602193832397e-01
1.709442436695098877e-01
1.542314141988754272e-01
1.430222541093826294e-01
1.423618048429489136e-01
1.488928496837615967e-01
1.537544280290603638e-01
1.497367471456527710e-01
1.373351216316223145e-01
1.244381666183471680e-01
1.199618428945541382e-01
1.258507817983627319e-01
1.356289833784103394e-01
1.390779465436935425e-01
1.303637921810150146e-01
1.129905134439468384e-01
9.712157398462295532e-02
9.198480844497680664e-02
9.868095070123672485e-02
1.096883118152618408e-01
1.151369512081146240e-01
1.105872392654418945e-01
1.004237830638885498e-01
9.394779056310653687e-02
9.734172374010086060e-02
1.083674281835556030e-01
1.186409592628479004e-01
1.202553734183311462e-01
1.120915785431861877e-01
1.013777554035186768e-01
1.308881491422653198e-01
1.265827417373657227e-01
1.156102940440177917e-01
1.081439480185508728e-01
1.121041998267173767e-01
1.267280727624893188e-01
1.432775557041168213e-01
1.520337164402008057e-01
1.498174220323562622e-01
1.425509154796600342e-01
1.398622989654541016e-01
1.469289809465408325e-01
1.601540446281433105e-01
1.703998446464538574e-01
1.705815047025680542e-01
1.620251834392547607e-01
1.533780246973037720e-01
1.536868512630462646e-01
1.646229624748229980e-01
1.789016723632812500e-01
1.862226873636245728e-01
1.814631074666976929e-01
1.691827028989791870e-01
1.602993756532669067e-01
1.625883281230926514e-01
1.744327545166015625e-01
1.856958568096160889e-01
1.853870302438735962e-01
1.701818406581878662e-01
1.473649740219116211e-01
1.289443522691726685e-01
1.225679889321327209e-01
1.260922551155090332e-01
1.305611580610275269e-01
1.274547278881072998e-01
1.157737895846366882e-01
1.026032269001007080e-01
9.668102115392684937e-02
1.013679206371307373e-01
1.118680387735366821e-01
1.190255582332611084e-01
1.168092712759971619e-01
1.071811392903327942e-01
9.837048500776290894e-02
9.797082841396331787e-02
1.063273176550865173e-01
1.164822801947593689e-01
1.194252148270606995e-01
1.116863787174224854e-01
9.844315052032470703e-02
8.943266421556472778e-02
9.130379557609558105e-02
1.026577278971672058e-01
1.149926409125328064e-01
1.194797158241271973e-01
1.127763539552688599e-01
9.931512922048568726e-02
8.665322512388229370e-02
7.867822051048278809e-02
7.235635071992874146e-02
6.123857945203781128e-02
4.158264771103858948e-02
1.758497208356857300e-02
0.000000000000000000e+00
7.266517495736479759e-04
2.703144587576389313e-02
8.160299062728881836e-02
1.656766086816787720e-01
2.815412282943725586e-01
4.304503500461578369e-01
6.044834256172180176e-01
7.808781862258911133e-01
9.246825575828552246e-01
1.000000000000000000e+00
9.863934516906738281e-01
8.884589672088623047e-01
7.343361377716064453e-01
5.626464486122131348e-01
4.051991999149322510e-01
2.766726613044738770e-01
1.764310449361801147e-01
9.811615198850631714e-02
4.018384218215942383e-02
8.247497491538524628e-03
8.538158610463142395e-03
3.838538005948066711e-02
8.372844755649566650e-02
1.253837645053863525e-01
1.494722664356231689e-01
1.548858284950256348e-01
1.511435657739639282e-01
1.494722664356231689e-01
1.536505222320556641e-01
1.590459048748016357e-01
1.580649316310882568e-01
1.482006311416625977e-01
1.347939074039459229e-01
1.271640658378601074e-01
1.303976625204086304e-01
1.413519382476806641e-01
1.511980742216110229e-01
1.522880494594573975e-01
1.443675458431243896e-01
1.353207230567932129e-01
1.343579143285751343e-01
1.445492058992385864e-01
1.602630466222763062e-01
1.713989824056625366e-01
1.715624779462814331e-01
1.626428365707397461e-01
1.537595093250274658e-01
1.532508581876754761e-01
1.621886789798736572e-01
1.738877743482589722e-01
1.795556545257568359e-01
1.753773987293243408e-01
1.660035997629165649e-01
1.604810506105422974e-01
1.650771200656890869e-01
1.781568527221679688e-01
1.916725635528564453e-01
1.973767876625061035e-01
1.934528648853302002e-01
1.859501898288726807e-01
1.834432333707809448e-01
1.902374327182769775e-01
2.026813477277755737e-01
2.126001417636871338e-01
2.138172835111618042e-01
2.073137462139129639e-01
2.006285488605499268e-01
2.016640305519104004e-01
2.117281556129455566e-01
2.246262282133102417e-01
2.309117615222930908e-01
2.262066900730133057e-01
2.147255986928939819e-01
2.067324221134185791e-01
2.099841982126235962e-01
2.238995730876922607e-01
2.399767488241195679e-01
2.487147301435470581e-01
2.468254417181015015e-01
2.399585843086242676e-01
2.376514673233032227e-01
2.455538064241409302e-01
2.609406411647796631e-01
2.754010260105133057e-01
2.812868952751159668e-01
2.781077921390533447e-01
2.724944055080413818e-01
2.725670933723449707e-01
2.809053957462310791e-01
2.923683524131774902e-01
2.987992167472839355e-01
2.954747676849365234e-01
2.851926684379577637e-01
2.763093411922454834e-01
2.758370041847229004e-01
2.837756872177124023e-01
2.933493256568908691e-01
2.960197627544403076e-01
2.880084216594696045e-01
2.733845710754394531e-01
2.605409920215606689e-01
2.557087540626525879e-01
2.577978670597076416e-01
2.594873607158660889e-01
2.531291544437408447e-01
2.375787943601608276e-01
2.194488346576690674e-01
2.075862437486648560e-01
2.062782645225524902e-01
2.110923379659652710e-01
2.130361348390579224e-01
2.054789513349533081e-01
1.898377686738967896e-01
1.743419319391250610e-01
1.674750596284866333e-01
1.703816801309585571e-01
1.764310449361801147e-01
1.765218824148178101e-01
1.660944223403930664e-01
1.496720910072326660e-01
1.367558687925338745e-01
1.345940679311752319e-01
1.419150978326797485e-01
1.505985856056213379e-01
1.517067253589630127e-01
1.427870690822601318e-01
1.299435049295425415e-01
1.229676455259323120e-01
1.271277219057083130e-01
1.391901522874832153e-01
1.501625925302505493e-01
1.519247144460678101e-01
1.438588798046112061e-01
1.335586011409759521e-01
1.299979984760284424e-01
1.359747052192687988e-01
1.041122674942016602e-01
1.025718078017234802e-01
1.103680208325386047e-01
1.232364624738693237e-01
1.328549087047576904e-01
1.334560662508010864e-01
1.264488697052001953e-01
1.197422519326210022e-01
1.216208636760711670e-01
1.337190717458724976e-01
1.500065773725509644e-01
1.606582701206207275e-01
1.600195318460464478e-01
1.507204473018646240e-01
1.418722122907638550e-01
1.420037150382995605e-01
1.526929736137390137e-01
1.675903201103210449e-01
1.775281280279159546e-01
1.775281280279159546e-01
1.703142970800399780e-01
1.641524732112884521e-01
1.655050665140151978e-01
1.739212125539779663e-01
1.826379299163818359e-01
1.840281039476394653e-01
1.756871044635772705e-01
1.624053716659545898e-01
1.520166844129562378e-01
1.484473347663879395e-01
1.485600471496582031e-01
1.447089165449142456e-01
1.320283263921737671e-01
1.127726361155509949e-01
9.603426605463027954e-02
9.013544768095016479e-02
9.637241810560226440e-02
1.073810383677482605e-01
1.131671369075775146e-01
1.085457727313041687e-01
9.744321554899215698e-02
8.929007500410079956e-02
9.086810052394866943e-02
1.009749993681907654e-01
1.114012524485588074e-01
1.138810068368911743e-01
1.068174540996551514e-01
9.631605446338653564e-02
9.139411151409149170e-02
9.618455171585083008e-02
1.066295951604843140e-01
1.139561533927917480e-01
1.114200353622436523e-01
1.001108363270759583e-01
8.829441666603088379e-02
8.429298549890518188e-02
8.925250172615051270e-02
9.535796940326690674e-02
9.135653823614120483e-02
7.155604660511016846e-02
4.119779914617538452e-02
1.341323647648096085e-02
0.000000000000000000e+00
3.945069387555122375e-03
1.963141746819019318e-02
4.106629639863967896e-02
7.219477742910385132e-02
1.289474219083786011e-01
2.299412041902542114e-01
3.824275434017181396e-01
5.722229480743408203e-01
7.648174762725830078e-01
9.183934330940246582e-01
1.000000000000000000e+00
9.974451065063476562e-01
9.202908277511596680e-01
7.920196652412414551e-01
6.394018530845642090e-01
4.846236109733581543e-01
3.420938849449157715e-01
2.211117595434188843e-01
1.291164904832839966e-01
7.057917118072509766e-02
4.420356452465057373e-02
4.298247396945953369e-02
5.603877454996109009e-02
7.403580844402313232e-02
9.291578084230422974e-02
1.128289923071861267e-01
1.335500031709671021e-01
1.510398089885711670e-01
1.590426564216613770e-01
1.532189846038818359e-01
1.369502693414688110e-01
1.196858957409858704e-01
1.117769703269004822e-01
1.170558482408523560e-01
1.300558000802993774e-01
1.401814669370651245e-01
1.399184614419937134e-01
1.303000152111053467e-01
1.200240477919578552e-01
1.184272319078445435e-01
1.277075409889221191e-01
1.416467875242233276e-01
1.503071486949920654e-01
1.476958841085433960e-01
1.370066255331039429e-01
1.279329657554626465e-01
1.288159191608428955e-01
1.395051777362823486e-01
1.522421091794967651e-01
1.566944122314453125e-01
1.493302732706069946e-01
1.358606815338134766e-01
1.273505985736846924e-01
1.308260262012481689e-01
1.434878110885620117e-01
1.556423902511596680e-01
1.585730165243148804e-01
1.518100351095199585e-01
1.434314548969268799e-01
1.433750987052917480e-01
1.545528024435043335e-01
1.709717959165573120e-01
1.822810024023056030e-01
1.820555627346038818e-01
1.733576357364654541e-01
1.659371405839920044e-01
1.686611175537109375e-01
1.821682900190353394e-01
1.987187862396240234e-01
2.076045870780944824e-01
2.042982429265975952e-01
1.934962719678878784e-01
1.856812685728073120e-01
1.884428262710571289e-01
2.005598247051239014e-01
2.136349081993103027e-01
2.186507880687713623e-01
2.136161327362060547e-01
2.053126990795135498e-01
2.036407291889190674e-01
2.133155465126037598e-01
2.300163507461547852e-01
2.436550110578536987e-01
2.462850660085678101e-01
2.381319105625152588e-01
2.274990081787109375e-01
2.241175323724746704e-01
2.311622947454452515e-01
2.434107959270477295e-01
2.522214353084564209e-01
2.525596022605895996e-01
2.469425648450851440e-01
2.429599314928054810e-01
2.465668469667434692e-01
2.563731670379638672e-01
2.655783295631408691e-01
2.662170529365539551e-01
2.568991780281066895e-01
2.433732151985168457e-01
2.347504347562789917e-01
2.354079335927963257e-01
2.416824847459793091e-01
2.449324578046798706e-01
2.384700626134872437e-01
2.239484488964080811e-01
2.100467830896377563e-01
2.051248401403427124e-01
2.102534174919128418e-01
2.179932743310928345e-01
2.180308401584625244e-01
2.051811963319778442e-01
1.837463080883026123e-01
1.641336828470230103e-01
1.550788134336471558e-01
1.571828424930572510e-01
1.629501581192016602e-01
1.627247333526611328e-01
1.522984653711318970e-01
1.360673308372497559e-01
1.232740357518196106e-01
1.203621923923492432e-01
1.256222873926162720e-01
1.312017440795898438e-01
1.290601342916488647e-01
1.180139407515525818e-01
1.043940559029579163e-01
9.723657369613647461e-02
1.001296266913414001e-01
1.091657131910324097e-01
1.161165460944175720e-01
1.152148172259330750e-01
1.079258322715759277e-01
1.018015816807746887e-01
1.036614030599594116e-01
1.140125095844268799e-01
1.264488697052001953e-01
1.324228346347808838e-01
1.103349253535270691e-01
1.032617241144180298e-01
1.045573130249977112e-01
1.146944016218185425e-01
1.275977343320846558e-01
1.360715776681900024e-01
1.372445970773696899e-01
1.350736171007156372e-01
1.366493403911590576e-01
1.460860967636108398e-01
1.606351882219314575e-01
1.721904128789901733e-01
1.739412099123001099e-01
1.659225821495056152e-01
1.553127765655517578e-01
1.513734906911849976e-01
1.579389721155166626e-01
1.707722693681716919e-01
1.809793859720230103e-01
1.818722933530807495e-01
1.745189726352691650e-01
1.665703803300857544e-01
1.658175289630889893e-01
1.735210120677947998e-01
1.837106347084045410e-01
1.877899765968322754e-01
1.812945306301116943e-01
1.672881990671157837e-01
1.535794883966445923e-01
1.460860967636108398e-01
1.447204798460006714e-01
1.438626050949096680e-01
1.373846679925918579e-01
1.246739178895950317e-01
1.110002249479293823e-01
1.039620414376258850e-01
1.065707206726074219e-01
1.145718470215797424e-01
1.195616051554679871e-01
1.156748458743095398e-01
1.042596772313117981e-01
9.314214438199996948e-02
9.030586481094360352e-02
9.711644798517227173e-02
1.077262461185455322e-01
1.133988127112388611e-01
1.093544811010360718e-01
9.855209290981292725e-02
8.913283050060272217e-02
8.778472244739532471e-02
9.466533362865447998e-02
1.032267063856124878e-01
1.062905937433242798e-01
1.016334891319274902e-01
9.378994256258010864e-02
8.974561095237731934e-02
9.219671785831451416e-02
9.601344913244247437e-02
9.205665439367294312e-02
7.442617416381835938e-02
4.574820026755332947e-02
1.696517691016197205e-02
0.000000000000000000e+00
8.403802639804780483e-04
1.878600008785724640e-02
5.201603844761848450e-02
1.049249768257141113e-01
1.887879222631454468e-01
3.149675130844116211e-01
4.829735457897186279e-01
6.725493073463439941e-01
8.466305732727050781e-01
9.649491310119628906e-01
1.000000000000000000e+00
9.480014443397521973e-01
8.282822966575622559e-01
6.723742485046386719e-01
5.104609727859497070e-01
3.620813488960266113e-01
2.356391251087188721e-01
1.344783455133438110e-01
6.239823624491691589e-02
2.346061542630195618e-02
1.796312816441059113e-02
3.856995329260826111e-02
7.115219533443450928e-02
1.013183444738388062e-01
1.210147589445114136e-01
1.314494758844375610e-01
1.382600665092468262e-01
1.449305862188339233e-01
1.494826376438140869e-01
1.474167108535766602e-01
1.370870321989059448e-01
1.230982020497322083e-01
1.139940842986106873e-01
1.153421923518180847e-01
1.252516806125640869e-01
1.356338709592819214e-01
1.384701579809188843e-01
1.323073655366897583e-01
1.234308555722236633e-01
1.204895228147506714e-01
1.270724982023239136e-01
1.394155919551849365e-01
1.485722362995147705e-01
1.482921093702316284e-01
1.397307217121124268e-01
1.310292929410934448e-01
1.304515302181243896e-01
1.396431922912597656e-01
1.522839069366455078e-01
1.596022248268127441e-01
1.568884849548339844e-01
1.478719115257263184e-01
1.415690630674362183e-01
1.452282220125198364e-01
1.582015901803970337e-01
1.727506667375564575e-01
1.799814403057098389e-01
1.766374260187149048e-01
1.676733791828155518e-01
1.620883494615554810e-01
1.652222573757171631e-01
1.751317530870437622e-01
1.840782910585403442e-01
1.852688342332839966e-01
1.785107702016830444e-01
1.705271601676940918e-01
1.693191230297088623e-01
1.774077713489532471e-01
1.896808296442031860e-01
1.974543482065200806e-01
1.957735866308212280e-01
1.874398142099380493e-01
1.809268742799758911e-01
1.837456375360488892e-01
1.961587667465209961e-01
2.109529525041580200e-01
2.195493429899215698e-01
2.183763086795806885e-01
2.118633687496185303e-01
2.086068987846374512e-01
2.140168398618698120e-01
2.262898981571197510e-01
2.375825047492980957e-01
2.411015927791595459e-01
2.362519055604934692e-01
2.296514213085174561e-01
2.293362766504287720e-01
2.384754121303558350e-01
2.523941993713378906e-01
2.624612748622894287e-01
2.625838220119476318e-01
2.542325258255004883e-01
2.450934052467346191e-01
2.428173720836639404e-01
2.487525641918182373e-01
2.573839724063873291e-01
2.606929540634155273e-01
2.547752857208251953e-01
2.427998632192611694e-01
2.325402200222015381e-01
2.301591485738754272e-01
2.346761971712112427e-01
2.393508106470108032e-01
2.366020679473876953e-01
2.241714447736740112e-01
2.072237730026245117e-01
1.940227895975112915e-01
1.894182115793228149e-01
1.914491355419158936e-01
1.927797347307205200e-01
1.869846135377883911e-01
1.738361567258834839e-01
1.593045890331268311e-01
1.504280716180801392e-01
1.491674929857254028e-01
1.510058343410491943e-01
1.486422568559646606e-01
1.384526491165161133e-01
1.234658658504486084e-01
1.117005422711372375e-01
1.095645800232887268e-01
1.162701100111007690e-01
1.247089281678199768e-01
1.264947354793548584e-01
1.188437789678573608e-01
1.069734022021293640e-01
9.997023642063140869e-02
1.034718230366706848e-01
1.145718470215797424e-01
1.247789636254310608e-01
1.259344816207885742e-01
1.172155365347862244e-01
1.057303398847579956e-01
1.004604548215866089e-01
1.055027395486831665e-01
1.164627000689506531e-01
1.244988366961479187e-01
1.835236549377441406e-01
1.950516551733016968e-01
1.995106041431427002e-01
1.957766860723495483e-01
1.897226721048355103e-01
1.887801289558410645e-01
1.957585662603378296e-01
2.063983976840972900e-01
2.131230682134628296e-01
2.113286256790161133e-01
2.037520408630371094e-01
1.980967968702316284e-01
2.013050615787506104e-01
2.133043259382247925e-01
2.270074337720870972e-01
2.338771075010299683e-01
2.299075573682785034e-01
2.196846157312393188e-01
2.113104909658432007e-01
2.095522880554199219e-01
2.128330618143081665e-01
2.162588387727737427e-01
2.163857221603393555e-01
2.124524265527725220e-01
2.050752192735671997e-01
1.940366178750991821e-01
1.783940494060516357e-01
1.600688844919204712e-01
1.446438282728195190e-01
1.372303813695907593e-01
1.376653909683227539e-01
1.389342099428176880e-01
1.338227242231369019e-01
1.201740056276321411e-01
1.036432832479476929e-01
9.331158548593521118e-02
9.459851682186126709e-02
1.046583279967308044e-01
1.145550087094306946e-01
1.157513111829757690e-01
1.067246720194816589e-01
9.390973299741744995e-02
8.671379089355468750e-02
8.975892513990402222e-02
9.932934492826461792e-02
1.066702902317047119e-01
1.053471118211746216e-01
9.632046520709991455e-02
8.765633404254913330e-02
8.740257471799850464e-02
9.661047905683517456e-02
1.087728813290596008e-01
1.144643798470497131e-01
1.093529090285301208e-01
9.746238589286804199e-02
8.789197355508804321e-02
8.687692880630493164e-02
9.213340282440185547e-02
9.409099072217941284e-02
8.326989412307739258e-02
5.836505442857742310e-02
2.825811132788658142e-02
6.035889033228158951e-03
0.000000000000000000e+00
9.425411932170391083e-03
2.981692925095558167e-02
6.179082766175270081e-02
1.160957068204879761e-01
2.093166559934616089e-01
3.514772653579711914e-01
5.341127514839172363e-01
7.278774976730346680e-01
8.916440010070800781e-01
9.885263442993164062e-01
1.000000000000000000e+00
9.309588670730590820e-01
8.036614060401916504e-01
6.466920375823974609e-01
4.844480752944946289e-01
3.333151936531066895e-01
2.035164088010787964e-01
1.034801527857780457e-01
3.978611528873443604e-02
1.417437009513378143e-02
2.080840989947319031e-02
4.681892320513725281e-02
7.795903831720352173e-02
1.047670841217041016e-01
1.254486143589019775e-01
1.429762542247772217e-01
1.591263413429260254e-01
1.711981147527694702e-01
1.737900972366333008e-01
1.644371896982192993e-01
1.475802063941955566e-01
1.327895522117614746e-01
1.281856149435043335e-01
1.342214941978454590e-01
1.435925364494323730e-01
1.481602340936660767e-01
1.458582580089569092e-01
1.415080726146697998e-01
1.419974565505981445e-01
1.486677527427673340e-01
1.564980894327163696e-01
1.584375500679016113e-01
1.530723273754119873e-01
1.461482644081115723e-01
1.462751477956771851e-01
1.567518562078475952e-01
1.723037809133529663e-01
1.830705106258392334e-01
1.821460872888565063e-01
1.714700013399124146e-01
1.607032865285873413e-01
1.594344824552536011e-01
1.697299182415008545e-01
1.846655756235122681e-01
1.941091120243072510e-01
1.928040534257888794e-01
1.845024526119232178e-01
1.783396750688552856e-01
1.810766756534576416e-01
1.917890161275863647e-01
2.029363811016082764e-01
2.065434157848358154e-01
2.004894018173217773e-01
1.909371018409729004e-01
1.868406683206558228e-01
1.930034458637237549e-01
2.064346522092819214e-01
2.186151891946792603e-01
2.226753681898117065e-01
2.187964469194412231e-01
2.137937247753143311e-01
2.154250442981719971e-01
2.258111238479614258e-01
2.397136092185974121e-01
2.489940226078033447e-01
2.488308846950531006e-01
2.419068366289138794e-01
2.360522001981735229e-01
2.382998019456863403e-01
2.491571456193923950e-01
2.624977231025695801e-01
2.699293196201324463e-01
2.676817178726196289e-01
2.596882283687591553e-01
2.548667788505554199e-01
2.594888508319854736e-01
2.723944187164306641e-01
2.857893705368041992e-01
2.915352582931518555e-01
2.875294685363769531e-01
2.793547213077545166e-01
2.753126621246337891e-01
2.791009545326232910e-01
2.869856953620910645e-01
2.912814915180206299e-01
2.869313061237335205e-01
2.761827111244201660e-01
2.665035426616668701e-01
2.646728157997131348e-01
2.705274522304534912e-01
2.767989933490753174e-01
2.750407755374908447e-01
2.623346149921417236e-01
2.440094202756881714e-01
2.295269221067428589e-01
2.248867154121398926e-01
2.282218635082244873e-01
2.313213646411895752e-01
2.261192649602890015e-01
2.115461230278015137e-01
1.940909922122955322e-01
1.825811117887496948e-01
1.808772832155227661e-01
1.849012076854705811e-01
1.862244009971618652e-01
1.788471937179565430e-01
1.644009351730346680e-01
1.509516090154647827e-01
1.462570279836654663e-01
1.512597352266311646e-01
1.590900868177413940e-01
1.608120352029800415e-01
1.524379253387451172e-01
1.386079341173171997e-01
1.288018822669982910e-01
1.296356767416000366e-01
1.395142227411270142e-01
1.498096734285354614e-01
1.516947597265243530e-01
1.431937664747238159e-01
1.308138519525527954e-01
1.242885589599609375e-01
1.284575015306472778e-01
1.398767381906509399e-01
1.496646702289581299e-01
1.508972197771072388e-01
1.106273084878921509e-01
1.188456639647483826e-01
1.174508035182952881e-01
1.102126240730285645e-01
1.063673347234725952e-01
1.131342798471450806e-01
1.294767409563064575e-01
1.466297209262847900e-01
1.546784341335296631e-01
1.503807604312896729e-01
1.395423412322998047e-01
1.324737966060638428e-01
1.356970518827438354e-01
1.472140550613403320e-01
1.587122082710266113e-01
1.626894325017929077e-01
1.587687581777572632e-01
1.543579846620559692e-01
1.571854054927825928e-01
1.687024086713790894e-01
1.821231991052627563e-01
1.878534257411956787e-01
1.809168308973312378e-01
1.652529537677764893e-01
1.508708447217941284e-01
1.460265368223190308e-01
1.506634950637817383e-01
1.569215059280395508e-01
1.550554186105728149e-01
1.413330286741256714e-01
1.209756433963775635e-01
1.038603633642196655e-01
9.722536057233810425e-02
9.969463944435119629e-02
1.036907210946083069e-01
1.016172841191291809e-01
9.213601797819137573e-02
8.139184117317199707e-02
7.773505151271820068e-02
8.421925455331802368e-02
9.613209962844848633e-02
1.043881475925445557e-01
1.021827608346939087e-01
9.119354933500289917e-02
7.977078855037689209e-02
7.639674097299575806e-02
8.310714364051818848e-02
9.373822063207626343e-02
9.907260537147521973e-02
9.439794719219207764e-02
8.325793594121932983e-02
7.460604608058929443e-02
7.545427232980728149e-02
8.512403070926666260e-02
9.575510770082473755e-02
9.831862896680831909e-02
8.934630453586578369e-02
7.332428544759750366e-02
5.850863456726074219e-02
4.949860647320747375e-02
4.429616406559944153e-02
3.683178871870040894e-02
2.331674657762050629e-02
7.520922925323247910e-03
0.000000000000000000e+00
1.391088031232357025e-02
6.016738340258598328e-02
1.444243341684341431e-01
2.675299644470214844e-01
4.246588349342346191e-01
6.028801798820495605e-01
7.791789174079895020e-01
9.222460985183715820e-01
1.000000000000000000e+00
9.924413561820983887e-01
9.007200598716735840e-01
7.487747669219970703e-01
5.742667317390441895e-01
4.129910171031951904e-01
2.849845290184020996e-01
1.916044652462005615e-01
1.225966960191726685e-01
6.772600114345550537e-02
2.599336579442024231e-02
5.089346319437026978e-03
1.259141974151134491e-02
4.623765498399734497e-02
9.234336018562316895e-02
1.321533620357513428e-01
1.525672972202301025e-01
1.534155160188674927e-01
1.446128338575363159e-01
1.374312043190002441e-01
1.363567858934402466e-01
1.376950889825820923e-01
1.347922831773757935e-01
1.249717250466346741e-01
1.125876531004905701e-01
1.058584004640579224e-01
1.098356321454048157e-01
1.222385615110397339e-01
1.349619179964065552e-01
1.400701254606246948e-01
1.356405019760131836e-01
1.276106387376785278e-01
1.243873909115791321e-01
1.300422251224517822e-01
1.406356096267700195e-01
1.476098895072937012e-01
1.447070837020874023e-01
1.337932646274566650e-01
1.233883723616600037e-01
1.219746693968772888e-01
1.310412436723709106e-01
1.440284997224807739e-01
1.517002135515213013e-01
1.495702266693115234e-01
1.413895785808563232e-01
1.360174864530563354e-01
1.398250758647918701e-01
1.516813635826110840e-01
1.638392508029937744e-01
1.681369245052337646e-01
1.628213822841644287e-01
1.538302004337310791e-01
1.500980108976364136e-01
1.561863869428634644e-01
1.684196591377258301e-01
1.780705749988555908e-01
1.785795092582702637e-01
1.713790297508239746e-01
1.648382693529129028e-01
1.676091402769088745e-01
1.811618804931640625e-01
1.985787600278854370e-01
2.097753137350082397e-01
2.094360291957855225e-01
2.010291814804077148e-01
1.942433863878250122e-01
1.970707923173904419e-01
2.093983292579650879e-01
2.234788537025451660e-01
2.296426147222518921e-01
2.247040569782257080e-01
2.144876718521118164e-01
2.093229293823242188e-01
2.157505899667739868e-01
2.305662333965301514e-01
2.437419891357421875e-01
2.461170107126235962e-01
2.368242442607879639e-01
2.241197377443313599e-01
2.187099456787109375e-01
2.252883911132812500e-01
2.395008653402328491e-01
2.516964375972747803e-01
2.548254430294036865e-01
2.493591159582138062e-01
2.425356209278106689e-01
2.414046525955200195e-01
2.469840943813323975e-01
2.538075745105743408e-01
2.543542087078094482e-01
2.457965761423110962e-01
2.321684360504150391e-01
2.215373665094375610e-01
2.193885296583175659e-01
2.237238883972167969e-01
2.266455590724945068e-01
2.211980670690536499e-01
2.064012736082077026e-01
1.891917437314987183e-01
1.785983592271804810e-01
1.789564937353134155e-01
1.860815733671188354e-01
1.906242966651916504e-01
1.851956546306610107e-01
1.705684959888458252e-01
1.548669189214706421e-01
1.471575051546096802e-01
1.497587263584136963e-01
1.567518711090087891e-01
1.588253080844879150e-01
1.512101292610168457e-01
1.373558044433593750e-01
1.261026859283447266e-01
1.240481063723564148e-01
1.297594755887985229e-01
1.355274021625518799e-01
1.336990147829055786e-01
1.233318224549293518e-01
1.110985428094863892e-01
1.060845926403999329e-01
1.120787188410758972e-01
1.247832328081130981e-01
1.347922831773757935e-01
1.350184679031372070e-01
1.261780858039855957e-01
1.161124929785728455e-01
1.134358718991279602e-01
1.033742800354957581e-01
9.737160801887512207e-02
9.116858243942260742e-02
8.822013437747955322e-02
9.029256552457809448e-02
9.617091715335845947e-02
1.026747822761535645e-01
1.072687283158302307e-01
1.099317967891693115e-01
1.127751693129539490e-01
1.178405582904815674e-01
1.248700320720672607e-01
1.310387104749679565e-01
1.330893486738204956e-01
1.302994489669799805e-01
1.254179030656814575e-01
1.227316632866859436e-01
1.247318685054779053e-01
1.298283636569976807e-01
1.333336681127548218e-01
1.314305216073989868e-01
1.246633827686309814e-01
1.181141063570976257e-01
1.179497390985488892e-01
1.269862800836563110e-01
1.424053609371185303e-01
1.574352532625198364e-01
1.657057553529739380e-01
1.648652255535125732e-01
1.571032851934432983e-01
1.467043608427047729e-01
1.369500309228897095e-01
1.285531222820281982e-01
1.206807866692543030e-01
1.129470542073249817e-01
1.064843609929084778e-01
1.029457524418830872e-01
1.028061807155609131e-01
1.044015288352966309e-01
1.048392578959465027e-01
1.023939847946166992e-01
9.814272820949554443e-02
9.543623775243759155e-02
9.731888771057128906e-02
1.038518026471138000e-01
1.115095615386962891e-01
1.152605712413787842e-01
1.122730374336242676e-01
1.040563285350799561e-01
9.535250067710876465e-02
9.106566756963729858e-02
9.292197227478027344e-02
9.872614592313766479e-02
1.042129248380661011e-01
1.062749549746513367e-01
1.045758426189422607e-01
1.004688367247581482e-01
9.496110677719116211e-02
8.736889809370040894e-02
7.612263411283493042e-02
6.102705746889114380e-02
4.450186342000961304e-02
3.099821880459785461e-02
2.485297806560993195e-02
2.934229373931884766e-02
4.781322926282882690e-02
8.613331615924835205e-02
1.538027673959732056e-01
2.606389820575714111e-01
4.097924232482910156e-01
5.898951292037963867e-01
7.730078101158142090e-01
9.211685061454772949e-01
1.000000000000000000e+00
9.920191168785095215e-01
9.030998945236206055e-01
7.584983110427856445e-01
5.918720960617065430e-01
4.324551820755004883e-01
2.971818149089813232e-01
1.904353797435760498e-01
1.096276864409446716e-01
5.129180848598480225e-02
1.446867827326059341e-02
0.000000000000000000e+00
6.499571725726127625e-03
2.797606959939002991e-02
5.529846996068954468e-02
8.059978485107421875e-02
1.002031117677688599e-01
1.146050468087196350e-01
1.258149892091751099e-01
1.347266584634780884e-01
1.402719467878341675e-01
1.412269622087478638e-01
1.382663547992706299e-01
1.341377347707748413e-01
1.319347470998764038e-01
1.328319013118743896e-01
1.353131085634231567e-01
1.365257203578948975e-01
1.349224299192428589e-01
1.315736323595046997e-01
1.290917992591857910e-01
1.296451240777969360e-01
1.330701112747192383e-01
1.369830518960952759e-01
1.385439038276672363e-01
1.364218741655349731e-01
1.316651254892349243e-01
1.266597509384155273e-01
1.233771517872810364e-01
1.220043897628784180e-01
1.212648004293441772e-01
1.201336979866027832e-01
1.193795353174209595e-01
1.214918866753578186e-01
1.286514997482299805e-01
1.403370648622512817e-01
1.529128402471542358e-01
1.613138169050216675e-01
1.623698472976684570e-01
1.568982005119323730e-01
1.489725112915039062e-01
1.435045748949050903e-01
1.433040797710418701e-01
1.478677541017532349e-01
1.545473933219909668e-01
1.611543744802474976e-01
1.672051697969436646e-01
1.733922809362411499e-01
1.800955533981323242e-01
1.861364990472793579e-01
1.892869174480438232e-01
1.883583068847656250e-01
1.846960932016372681e-01
1.816611737012863159e-01
1.821490675210952759e-01
1.863131970167160034e-01
1.915910243988037109e-01
1.950352191925048828e-01
1.961429864168167114e-01
1.976410150527954102e-01
2.033626437187194824e-01
2.148799449205398560e-01
2.297119200229644775e-01
2.424906045198440552e-01
2.485891431570053101e-01
2.473829388618469238e-01
2.427778095006942749e-01
2.406376153230667114e-01
2.447718977928161621e-01
2.542252838611602783e-01
2.638963758945465088e-01
2.684366106986999512e-01
2.663270831108093262e-01
2.608155310153961182e-01
2.571883201599121094e-01
2.585517764091491699e-01
2.634246349334716797e-01
2.675305306911468506e-01
2.678469121456146240e-01
2.651788890361785889e-01
2.629798650741577148e-01
2.640723586082458496e-01
2.678608298301696777e-01
2.705051600933074951e-01
2.680149376392364502e-01
2.595271468162536621e-01
2.481772899627685547e-01
2.387451380491256714e-01
2.341548204421997070e-01
2.334273010492324829e-01
2.324879169464111328e-01
2.274888306856155396e-01
2.181417942047119141e-01
2.078655064105987549e-01
2.008137404918670654e-01
1.984071880578994751e-01
1.978028565645217896e-01
1.936238110065460205e-01
1.819041520357131958e-01
1.630429029464721680e-01
1.415811926126480103e-01
1.235313788056373596e-01
1.128937378525733948e-01
1.094794198870658875e-01
1.095408871769905090e-01
1.086540743708610535e-01
1.047741323709487915e-01
9.895917028188705444e-02
9.381345659494400024e-02
9.094455093145370483e-02
8.953990787267684937e-02
8.753503113985061646e-02
8.389748632907867432e-02
7.999230176210403442e-02
7.854317873716354370e-02
8.117111772298812866e-02
8.677709102630615234e-02