1.649604439735412598e-01
1.696308255195617676e-01
1.713375598192214966e-01
1.713016927242279053e-01
1.729552298784255981e-01
1.788452118635177612e-01
1.881989091634750366e-01
1.969686746597290039e-01
2.008348256349563599e-01
1.986272633075714111e-01
1.934081465005874634e-01
1.903566569089889526e-01
1.930197477340698242e-01
2.006089240312576294e-01
2.085991948843002319e-01
2.121615260839462280e-01
2.097000628709793091e-01
2.038845121860504150e-01
1.993482708930969238e-01
1.990074515342712402e-01
2.017865777015686035e-01
2.037214636802673340e-01
2.012594342231750488e-01
1.940509974956512451e-01
1.849280446767807007e-01
1.774839162826538086e-01
1.732351034879684448e-01
1.705900132656097412e-01
1.666223108768463135e-01
1.599508076906204224e-01
1.519911140203475952e-01
1.456549465656280518e-01
1.428122818470001221e-01
1.426449567079544067e-01
1.422662287950515747e-01
1.391840577125549316e-01
1.334658861160278320e-01
1.277328729629516602e-01
1.250707954168319702e-01
1.266310065984725952e-01
1.305349469184875488e-01
1.332657337188720703e-01
1.324228197336196899e-01
1.287354528903961182e-01
1.255291402339935303e-01
1.260176002979278564e-01
1.307210475206375122e-01
1.368161439895629883e-01
1.403495669364929199e-01
1.393831968307495117e-01
1.354754269123077393e-01
1.322684288024902344e-01
1.325567513704299927e-01
1.359761655330657959e-01
1.392212808132171631e-01
1.384411156177520752e-01
1.317375749349594116e-01
1.200294494628906250e-01
1.059561148285865784e-01
9.192393720149993896e-02
7.865471392869949341e-02
6.561904400587081909e-02
5.303596705198287964e-02
4.439495876431465149e-02
4.732803255319595337e-02
7.253870368003845215e-02
1.307960450649261475e-01
2.286307811737060547e-01
3.647796511650085449e-01
5.286111235618591309e-01
7.003134489059448242e-01
8.535956144332885742e-01
9.608796238899230957e-01
1.000000000000000000e+00
9.610086679458618164e-01
8.505572676658630371e-01
6.910983920097351074e-01
5.138408541679382324e-01
3.482206761837005615e-01
2.131779342889785767e-01
1.147359982132911682e-01
4.972383379936218262e-02
1.256350614130496979e-02
0.000000000000000000e+00
1.068957243114709854e-02
4.135472327470779419e-02
8.403598517179489136e-02
1.270793378353118896e-01
1.596731841564178467e-01
1.765636503696441650e-01
1.797485053539276123e-01
1.760112047195434570e-01
1.723137050867080688e-01
1.719272285699844360e-01
1.738270223140716553e-01
1.749726384878158569e-01
1.736757904291152954e-01
1.712907850742340088e-01
1.707629561424255371e-01
1.738427728414535522e-01
1.793114095926284790e-01
1.835425794124603271e-01
1.835891306400299072e-01
1.797088086605072021e-01
1.753496676683425903e-01
1.744699925184249878e-01
1.784219592809677124e-01
1.847337335348129272e-01
1.890508085489273071e-01
1.887177377939224243e-01
1.848576515913009644e-01
1.814824342727661133e-01
1.823982000350952148e-01
1.882468163967132568e-01
1.960707753896713257e-01
2.014519423246383667e-01
2.017644345760345459e-01
1.982459574937820435e-01
1.948690563440322876e-01
1.954632252454757690e-01
2.007797360420227051e-01
2.080343812704086304e-01
2.133386284112930298e-01
2.148588001728057861e-01
2.142365127801895142e-01
2.149085104465484619e-01
2.189770638942718506e-01
2.251998931169509888e-01
2.299900352954864502e-01
2.306609004735946655e-01
2.278370112180709839e-01
2.249345183372497559e-01
2.255670428276062012e-01
2.308216989040374756e-01
2.384195327758789062e-01
2.442983835935592651e-01
2.458208203315734863e-01
2.438950389623641968e-01
2.420473098754882812e-01
2.436276376247406006e-01
2.491039335727691650e-01
2.557013332843780518e-01
2.596139311790466309e-01
2.593120038509368896e-01
2.568409740924835205e-01
2.561269402503967285e-01
2.597224414348602295e-01
2.667633295059204102e-01
2.736695110797882080e-01
2.770243585109710693e-01
2.761787474155426025e-01
2.736661136150360107e-01
2.731739580631256104e-01
2.766798138618469238e-01
2.827349901199340820e-01
2.876304984092712402e-01
2.883754670619964600e-01
2.852180600166320801e-01
2.815745472908020020e-01
2.811559140682220459e-01
2.849309742450714111e-01
2.901595532894134521e-01
2.924672961235046387e-01
2.894692420959472656e-01
2.826403081417083740e-01
2.758007049560546875e-01
2.719653546810150146e-01
2.710435092449188232e-01
2.700569033622741699e-01
2.656498849391937256e-01
2.570766806602478027e-01
2.468366622924804688e-01
2.387599200010299683e-01
2.349250167608261108e-01
2.338563203811645508e-01
2.316474020481109619e-01
2.250843048095703125e-01
2.143235504627227783e-01
2.030856907367706299e-01
1.956110894680023193e-01
1.931120604276657104e-01
1.926615983247756958e-01
1.898055523633956909e-01
1.826149970293045044e-01
1.733960211277008057e-01
1.666137576103210449e-01
1.646509915590286255e-01
1.657715290784835815e-01
1.659362614154815674e-01
1.626311093568801880e-01
1.572800725698471069e-01
1.540984958410263062e-01
1.561119705438613892e-01
1.623698920011520386e-01
1.685594320297241211e-01
1.705801188945770264e-01
1.675177216529846191e-01
1.621496081352233887e-01
1.586837619543075562e-01
1.593679934740066528e-01
1.411322504281997681e-01
1.366198360919952393e-01
1.368882805109024048e-01
1.428781002759933472e-01
1.517458260059356689e-01
1.593123674392700195e-01
1.633069962263107300e-01
1.649797260761260986e-01
1.674232631921768188e-01
1.724496930837631226e-01
1.787174642086029053e-01
1.827238649129867554e-01
1.818814426660537720e-01
1.771116703748703003e-01
1.725337952375411987e-01
1.725438684225082397e-01
1.785398721694946289e-01
1.876160800457000732e-01
1.946371346712112427e-01
1.960019469261169434e-01
1.922151297330856323e-01
1.872840076684951782e-01
1.855982244014739990e-01
1.883665174245834351e-01
1.925310641527175903e-01
1.931270062923431396e-01
1.871884614229202271e-01
1.761887967586517334e-01
1.647440046072006226e-01
1.572429090738296509e-01
1.547027975320816040e-01
1.542833000421524048e-01
1.517161875963211060e-01
1.449484825134277344e-01
1.358795762062072754e-01
1.286306977272033691e-01
1.262726485729217529e-01
1.282989680767059326e-01
1.310854405164718628e-01
1.308054327964782715e-01
1.265808045864105225e-01
1.211389899253845215e-01
1.185481846332550049e-01
1.207455769181251526e-01
1.257625222206115723e-01
1.292475908994674683e-01
1.281889975070953369e-01
1.233306601643562317e-01
1.184826195240020752e-01
1.174116730690002441e-01
1.206525489687919617e-01
1.253026276826858521e-01
1.275493353605270386e-01
1.259130984544754028e-01
1.222533062100410461e-01
1.197128519415855408e-01
1.194496601819992065e-01
1.189068108797073364e-01
1.132502108812332153e-01
9.897030144929885864e-02
7.715852558612823486e-02
5.383021757006645203e-02
3.670261800289154053e-02
3.162594884634017944e-02
4.133862257003784180e-02
6.803299486637115479e-02
1.173351183533668518e-01
1.986520141363143921e-01
3.201460838317871094e-01
4.803332686424255371e-01
6.616670489311218262e-01
8.317402601242065430e-01
9.536495804786682129e-01
1.000000000000000000e+00
9.631797671318054199e-01
8.567560911178588867e-01
7.080909013748168945e-01
5.465468168258666992e-01
3.941152393817901611e-01
2.622920572757720947e-01
1.552374213933944702e-01
7.465526461601257324e-02
2.239799872040748596e-02
0.000000000000000000e+00
5.702715367078781128e-03
3.259219229221343994e-02
6.980482488870620728e-02
1.067676544189453125e-01
1.365764588117599487e-01
1.569683998823165894e-01
1.687513291835784912e-01
1.732909828424453735e-01
1.715844869613647461e-01
1.650311052799224854e-01
1.565778404474258423e-01
1.502340883016586304e-01
1.489730775356292725e-01
1.527401059865951538e-01
1.584320664405822754e-01
1.620805412530899048e-01
1.619679331779479980e-01
1.597359925508499146e-01
1.589908152818679810e-01
1.621122360229492188e-01
1.680736690759658813e-01
1.732408553361892700e-01
1.744950115680694580e-01
1.720042228698730469e-01
1.692172884941101074e-01
1.701418757438659668e-01
1.759886592626571655e-01
1.840431243181228638e-01
1.896141320466995239e-01
1.898656487464904785e-01
1.858696639537811279e-01
1.818310916423797607e-01
1.818681657314300537e-01
1.868372708559036255e-01
1.937483698129653931e-01
1.982859522104263306e-01
1.983464956283569336e-01
1.957052201032638550e-01
1.943041533231735229e-01
1.969748288393020630e-01
2.029122412204742432e-01
2.081784009933471680e-01
2.091336548328399658e-01
2.056032717227935791e-01
2.013250887393951416e-01
2.007959783077239990e-01
2.057892233133316040e-01
2.138230949640274048e-01
2.199902832508087158e-01
2.209028601646423340e-01
2.174659669399261475e-01
2.139018326997756958e-01
2.143431752920150757e-01
2.195659726858139038e-01
2.264792472124099731e-01
2.307391166687011719e-01
2.303515523672103882e-01
2.273413538932800293e-01
2.261465936899185181e-01
2.302442044019699097e-01
2.391745299100875854e-01
2.486763000488281250e-01
2.538185417652130127e-01
2.525385320186614990e-01
2.470889389514923096e-01
2.422123998403549194e-01
2.414997369050979614e-01
2.448740452527999878e-01
2.490819543600082397e-01
2.507606446743011475e-01
2.494079768657684326e-01
2.476519346237182617e-01
2.487942874431610107e-01
2.539469301700592041e-01
2.607603073120117188e-01
2.651163041591644287e-01
2.644893229007720947e-01
2.601008415222167969e-01
2.559737265110015869e-01
2.556933462619781494e-01
2.595726251602172852e-01
2.642289996147155762e-01
2.652196288108825684e-01
2.605657875537872314e-01
2.522608041763305664e-01
2.445182800292968750e-01
2.402574867010116577e-01
2.385502010583877563e-01
2.354008704423904419e-01
2.271167337894439697e-01
2.136868089437484741e-01
1.991071105003356934e-01
1.884825378656387329e-01
1.843661665916442871e-01
1.848483681678771973e-01
1.853254288434982300e-01
1.819425523281097412e-01
1.743142157793045044e-01
1.652312427759170532e-01
1.580868214368820190e-01
1.541292816400527954e-01
1.517452448606491089e-01
1.482129245996475220e-01
1.424556225538253784e-01
1.363066285848617554e-01
1.331634819507598877e-01
1.351510137319564819e-01
1.409778743982315063e-01
1.465634256601333618e-01
1.480851024389266968e-01
1.450706869363784790e-01
1.406661719083786011e-01
1.389424055814743042e-01
1.415843516588211060e-01
1.463205963373184204e-01
1.489130109548568726e-01
1.586891710758209229e-01
1.573838889598846436e-01
1.522653549909591675e-01
1.484280973672866821e-01
1.502390205860137939e-01
1.579458266496658325e-01
1.678229421377182007e-01
1.752519011497497559e-01
1.783869862556457520e-01
1.791803687810897827e-01
1.811228841543197632e-01
1.858309656381607056e-01
1.915654540061950684e-01
1.948265582323074341e-01
1.936122626066207886e-01
1.896619647741317749e-01
1.873952001333236694e-01
1.904183775186538696e-01
1.985515505075454712e-01
2.075069993734359741e-01
2.119342833757400513e-01
2.095002382993698120e-01
2.026327550411224365e-01
1.965909600257873535e-01
1.953333318233489990e-01
1.981196105480194092e-01
2.000483572483062744e-01
1.960099190473556519e-01
1.849263459444046021e-01
1.707724183797836304e-01
1.595129072666168213e-01
1.546783596277236938e-01
1.548151820898056030e-01
1.550805121660232544e-01
1.514280736446380615e-01
1.438125818967819214e-01
1.358734369277954102e-01
1.318331658840179443e-01
1.330326795578002930e-01
1.369896978139877319e-01
1.394544541835784912e-01
1.377726197242736816e-01
1.327119618654251099e-01
1.274687796831130981e-01
1.246502101421356201e-01
1.241770908236503601e-01
1.240184381604194641e-01
1.226328685879707336e-01
1.210374608635902405e-01
1.220672875642776489e-01
1.274133920669555664e-01
1.354307979345321655e-01
1.418944150209426880e-01
1.433043330907821655e-01
1.397076100111007690e-01
1.344864964485168457e-01
1.309977173805236816e-01
1.292963027954101562e-01
1.256154328584671021e-01
1.153825744986534119e-01
9.721066802740097046e-02
7.465128600597381592e-02
5.448421090841293335e-02
4.306070879101753235e-02
4.401308298110961914e-02
5.933639034628868103e-02
9.297444671392440796e-02
1.530252993106842041e-01
2.493779808282852173e-01
3.869246244430541992e-01
5.579741001129150391e-01
7.386614680290222168e-01
8.936336040496826172e-01
9.878447651863098145e-01
1.000000000000000000e+00
9.304548501968383789e-01
7.996036410331726074e-01
6.380652785301208496e-01
4.743308424949645996e-01
3.268882036209106445e-01
2.039607912302017212e-01
1.083172038197517395e-01
4.161440208554267883e-02
5.569475702941417694e-03
0.000000000000000000e+00
2.001376450061798096e-02
5.581462755799293518e-02
9.608928859233856201e-02
1.319683939218521118e-01
1.590915471315383911e-01
1.768777817487716675e-01
1.862676888704299927e-01
1.880784928798675537e-01
1.832490563392639160e-01
1.742771267890930176e-01
1.657377034425735474e-01
1.623020321130752563e-01
1.659104526042938232e-01
1.743046492338180542e-01
1.823559403419494629e-01
1.855539083480834961e-01
1.831181645393371582e-01
1.781986504793167114e-01
1.753332167863845825e-01
1.770358681678771973e-01
1.821061819791793823e-01
1.869564354419708252e-01
1.885989308357238770e-01
1.870507150888442993e-01
1.850879639387130737e-01
1.857971847057342529e-01
1.896938085556030273e-01
1.941736340522766113e-01
1.956834048032760620e-01
1.930549889802932739e-01
1.887056082487106323e-01
1.869176477193832397e-01
1.904277056455612183e-01
1.980589926242828369e-01
2.053511291742324829e-01
2.080839574337005615e-01
2.057817131280899048e-01
2.019918859004974365e-01
2.013560235500335693e-01
2.059461772441864014e-01
2.135498225688934326e-01
2.193425446748733521e-01
2.198088467121124268e-01
2.157591432332992554e-01
2.117999792098999023e-01
2.128574401140213013e-01
2.205942720174789429e-01
2.320368736982345581e-01
2.417903691530227661e-01
2.458389252424240112e-01
2.442663908004760742e-01
2.409104406833648682e-01
2.403124421834945679e-01
2.443677186965942383e-01
2.510906457901000977e-01
2.566426098346710205e-01
2.587452530860900879e-01
2.584367990493774414e-01
2.589062750339508057e-01
2.622553110122680664e-01
2.673554122447967529e-01
2.705432772636413574e-01
2.689558267593383789e-01
2.634547948837280273e-01
2.582580149173736572e-01
2.577905952930450439e-01
2.631371617317199707e-01
2.710362970829010010e-01
2.762761712074279785e-01
2.756531536579132080e-01
2.705069780349731445e-01
2.657190561294555664e-01
2.659478783607482910e-01
2.720065116882324219e-01
2.799020111560821533e-01
2.839559018611907959e-01
2.813520431518554688e-01
2.744660377502441406e-01
2.687982916831970215e-01
2.685680091381072998e-01
2.732603847980499268e-01
2.780265808105468750e-01
2.776839137077331543e-01
2.708275914192199707e-01
2.606277167797088623e-01
2.519391775131225586e-01
2.475258857011795044e-01
2.461082488298416138e-01
2.437978088855743408e-01
2.374998927116394043e-01
2.275047302246093750e-01
2.171360701322555542e-01
2.099457234144210815e-01
2.067397832870483398e-01
2.047044634819030762e-01
1.997597068548202515e-01
1.900818496942520142e-01
1.779250204563140869e-01
1.679594218730926514e-01
1.637699455022811890e-01
1.649819612503051758e-01
1.675876379013061523e-01
1.670612841844558716e-01
1.619912087917327881e-01
1.551103144884109497e-01
1.507146358489990234e-01
1.511846929788589478e-01
1.549845188856124878e-01
1.580179333686828613e-01
1.569749116897583008e-01
1.522273570299148560e-01
1.474122554063796997e-01
1.465546190738677979e-01
1.507356762886047363e-01
1.571779251098632812e-01
1.568178683519363403e-01
1.507120728492736816e-01
1.485716253519058228e-01
1.527269780635833740e-01
1.613008826971054077e-01
1.699151396751403809e-01
1.749885231256484985e-01
1.763095259666442871e-01
1.766528785228729248e-01
1.789447516202926636e-01
1.836157441139221191e-01
1.880060285329818726e-01
1.888866573572158813e-01
1.855670958757400513e-01
1.811230480670928955e-01
1.801073253154754639e-01
1.850132495164871216e-01
1.939642131328582764e-01
2.018743008375167847e-01
2.042556554079055786e-01
2.008285820484161377e-01
1.957060843706130981e-01
1.940635889768600464e-01
1.978284865617752075e-01
2.037228792905807495e-01
2.056681513786315918e-01
1.993018239736557007e-01
1.855977475643157959e-01
1.701877266168594360e-01
1.593721807003021240e-01
1.556935012340545654e-01
1.563880890607833862e-01
1.560948789119720459e-01
1.511940211057662964e-01
1.424473524093627930e-01
1.340376287698745728e-01
1.300953626632690430e-01
1.312973648309707642e-01
1.342330127954483032e-01
1.343006342649459839e-01
1.296669393777847290e-01
1.228891015052795410e-01
1.187863796949386597e-01
1.204258278012275696e-01
1.265725195407867432e-01
1.328088045120239258e-01
1.350878477096557617e-01
1.331888884305953979e-01
1.304929107427597046e-01
1.308055073022842407e-01
1.350807398557662964e-01
1.406250298023223877e-01
1.433043181896209717e-01
1.409574449062347412e-01
1.349745988845825195e-01
1.287162303924560547e-01
1.243280768394470215e-01
1.203488633036613464e-01
1.126088127493858337e-01
9.770835191011428833e-02
7.648687809705734253e-02
5.475617945194244385e-02
4.038308560848236084e-02
3.949705138802528381e-02
5.495371669530868530e-02
8.857709914445877075e-02
1.448397636413574219e-01
2.313789576292037964e-01
3.547806739807128906e-01
5.128906965255737305e-01
6.887117028236389160e-01
8.510959744453430176e-01
9.639649391174316406e-01
1.000000000000000000e+00
9.518847465515136719e-01
8.346558809280395508e-01
6.781603097915649414e-01
5.139759182929992676e-01
3.642975091934204102e-01
2.386720031499862671e-01
1.385965943336486816e-01
6.421995908021926880e-02
1.733488589525222778e-02
0.000000000000000000e+00
1.025854330509901047e-02
4.019343852996826172e-02
7.831303775310516357e-02
1.145042702555656433e-01
1.433144658803939819e-01
1.638902574777603149e-01
1.771070957183837891e-01
1.831772923469543457e-01
1.815866380929946899e-01
1.729895025491714478e-01
1.609244048595428467e-01
1.510548591613769531e-01
1.481158286333084106e-01
1.527886092662811279e-01
1.613801121711730957e-01
1.682912558317184448e-01
1.701744347810745239e-01
1.679664999246597290e-01
1.657195687294006348e-01
1.672289818525314331e-01
1.730342507362365723e-01
1.801041662693023682e-01
1.845212727785110474e-01
1.846860200166702271e-01
1.826459765434265137e-01
1.821093708276748657e-01
1.853828579187393188e-01
1.913195103406906128e-01
1.960064917802810669e-01
1.960149407386779785e-01
1.913370937108993530e-01
1.857116669416427612e-01
1.838010996580123901e-01
1.876616626977920532e-01
1.949872672557830811e-01
2.009265124797821045e-01
2.020249515771865845e-01
1.988403946161270142e-01
1.954242587089538574e-01
1.961606442928314209e-01
2.022054791450500488e-01
2.105666399002075195e-01
2.165320366621017456e-01
2.171985656023025513e-01
2.138484567403793335e-01
2.109416574239730835e-01
2.127102315425872803e-01
2.198051661252975464e-01
2.287629991769790649e-01
2.346392571926116943e-01
2.350642979145050049e-01
2.319956868886947632e-01
2.299069762229919434e-01
2.322568893432617188e-01
2.386318892240524292e-01
2.451236248016357422e-01
2.478513717651367188e-01
2.463247179985046387e-01
2.437059432268142700e-01
2.442051321268081665e-01
2.496137470006942749e-01
2.576849758625030518e-01
2.638391256332397461e-01
2.649389207363128662e-01
2.618411183357238770e-01
2.585634589195251465e-01
2.588793039321899414e-01
2.631411552429199219e-01
2.681374549865722656e-01
2.699241638183593750e-01
2.673101127147674561e-01
2.629819214344024658e-01
2.612589895725250244e-01
2.645054161548614502e-01
2.708968520164489746e-01
2.756046950817108154e-01
2.745756506919860840e-01
2.677866518497467041e-01
2.593762576580047607e-01
2.545731961727142334e-01
2.558944225311279297e-01
2.611921727657318115e-01
2.652118206024169922e-01
2.636028230190277100e-01
2.561188936233520508e-01
2.464776337146759033e-01
2.392365485429763794e-01
2.361012250185012817e-01
2.347232103347778320e-01
2.308108061552047729e-01
2.219575494527816772e-01
2.098345309495925903e-01
1.990060359239578247e-01
1.933917701244354248e-01
1.930312961339950562e-01
1.941669285297393799e-01
1.921197921037673950e-01
1.850908845663070679e-01
1.754542440176010132e-01
1.676189750432968140e-01
1.643529385328292847e-01
1.644532233476638794e-01
1.638269275426864624e-01
1.592214107513427734e-01
1.512650102376937866e-01
1.438882499933242798e-01
1.410460174083709717e-01
1.435363441705703735e-01
1.481486111879348755e-01
1.503789722919464111e-01
1.480929553508758545e-01
1.430237442255020142e-01
1.392218917608261108e-01
1.397064328193664551e-01
1.439331024885177612e-01
1.481971889734268188e-01
1.588033139705657959e-01
1.614238619804382324e-01
1.587257087230682373e-01
1.541002839803695679e-01
1.525240838527679443e-01
1.568590849637985229e-01
1.658151000738143921e-01
1.750635653734207153e-01
1.803917884826660156e-01
1.806083172559738159e-01
1.779633313417434692e-01
1.762072443962097168e-01
1.777636557817459106e-01
1.822606623172760010e-01
1.873397529125213623e-01
1.909397244453430176e-01
1.930733323097229004e-01
1.954197585582733154e-01
1.995114088058471680e-01
2.048227787017822266e-01
2.086456120014190674e-01
2.081565260887145996e-01
2.028527557849884033e-01
1.950599998235702515e-01
1.880554556846618652e-01
1.834456473588943481e-01
1.797585636377334595e-01
1.736620515584945679e-01
1.631766706705093384e-01
1.499999165534973145e-01
1.387743055820465088e-01
1.336611509323120117e-01
1.351219564676284790e-01
1.394088715314865112e-01
1.413769721984863281e-01
1.382668912410736084e-01
1.315729022026062012e-01
1.255442649126052856e-01
1.237810552120208740e-01
1.266150921583175659e-01
1.311095058917999268e-01
1.333487927913665771e-01
1.313086152076721191e-01
1.262450218200683594e-01
1.215353161096572876e-01
1.202263459563255310e-01
1.227331906557083130e-01
1.266103386878967285e-01
1.285264045000076294e-01
1.271851807832717896e-01
1.244087293744087219e-01
1.237077414989471436e-01
1.273815780878067017e-01
1.341772824525833130e-01
1.397379934787750244e-01
1.396024525165557861e-01
1.322857737541198730e-01
1.198994964361190796e-01
1.059999242424964905e-01
9.273108094930648804e-02
7.965468615293502808e-02
6.530211865901947021e-02
5.014199763536453247e-02
3.857402876019477844e-02
3.880810737609863281e-02
6.095591560006141663e-02
1.145838350057601929e-01
2.058440446853637695e-01
3.350275456905364990e-01
4.945171177387237549e-01
6.672732830047607422e-01
8.278772830963134766e-01
9.471877813339233398e-01
1.000000000000000000e+00
9.735016822814941406e-01
8.727344870567321777e-01
7.199540734291076660e-01
5.469598174095153809e-01
3.836702704429626465e-01
2.487355470657348633e-01
1.471682637929916382e-01
7.496658712625503540e-02
2.675150893628597260e-02
1.129089854657649994e-03
0.000000000000000000e+00
2.320901863276958466e-02
6.405491381883621216e-02
1.096067875623703003e-01
1.462097764015197754e-01
1.660193055868148804e-01
1.699010878801345825e-01
1.651529222726821899e-01
1.599163413047790527e-01
1.582584530115127563e-01
1.591127365827560425e-01
1.591359376907348633e-01
1.565041840076446533e-01
1.526723951101303101e-01
1.510286629199981689e-01
1.539466381072998047e-01
1.604685485363006592e-01
1.668639779090881348e-01
1.695993542671203613e-01
1.681582480669021606e-01
1.651919484138488770e-01
1.641868501901626587e-01
1.666172295808792114e-01
1.705994755029678345e-01
1.725895255804061890e-01
1.706752777099609375e-01
1.664941310882568359e-01
1.641161441802978516e-01
1.667767465114593506e-01
1.743821501731872559e-01
1.833613514900207520e-01
1.893594413995742798e-01
1.904439628124237061e-01
1.883064955472946167e-01
1.864877343177795410e-01
1.875424981117248535e-01
1.912055909633636475e-01
1.950096487998962402e-01
1.966329067945480347e-01
1.960678100585937500e-01
1.958085000514984131e-01
1.987273842096328735e-01
2.056993395090103149e-01
2.143374532461166382e-01
2.206531167030334473e-01
2.219326645135879517e-01
2.189446538686752319e-01
2.152596116065979004e-01
2.145887166261672974e-01
2.179834544658660889e-01
2.232445925474166870e-01
2.270558923482894897e-01
2.281146049499511719e-01
2.283685952425003052e-01
2.312373667955398560e-01
2.386066615581512451e-01
2.487587332725524902e-01
2.573164999485015869e-01
2.604208290576934814e-01
2.579112648963928223e-01
2.535296380519866943e-01
2.521836757659912109e-01
2.562020123004913330e-01
2.635504901409149170e-01
2.694148719310760498e-01
2.699921727180480957e-01
2.656932771205902100e-01
2.607992589473724365e-01
2.601142227649688721e-01
2.651823461055755615e-01
2.732582986354827881e-01
2.796124219894409180e-01
2.812648713588714600e-01
2.791324853897094727e-01
2.767901420593261719e-01
2.773372530937194824e-01
2.806230485439300537e-01
2.833232581615447998e-01
2.818022668361663818e-01
2.751354277133941650e-01
2.659757733345031738e-01
2.585685849189758301e-01
2.553102970123291016e-01
2.547281980514526367e-01
2.526653110980987549e-01
2.458169907331466675e-01
2.346429675817489624e-01
2.230921983718872070e-01
2.155140489339828491e-01
2.131480574607849121e-01
2.129939645528793335e-01
2.100360542535781860e-01
2.013839185237884521e-01
1.887859702110290527e-01
1.772561222314834595e-01
1.712469458580017090e-01
1.710465848445892334e-01
1.725089699029922485e-01
1.702313274145126343e-01
1.620661318302154541e-01
1.507035046815872192e-01
1.414033323526382446e-01
1.378709226846694946e-01
1.394351273775100708e-01
1.418139040470123291e-01
1.407678574323654175e-01
1.354730129241943359e-01
1.289556324481964111e-01
1.254057884216308594e-01
1.267638653516769409e-01
1.311501115560531616e-01
1.344635039567947388e-01
1.337873041629791260e-01
1.297356933355331421e-01
1.260507702827453613e-01
1.265033185482025146e-01
2.025260776281356812e-01
2.102492749691009521e-01
2.161236256361007690e-01
2.176358401775360107e-01
2.163571119308471680e-01
2.165704369544982910e-01
2.215055525302886963e-01
2.305029779672622681e-01
2.393812537193298340e-01
2.436896711587905884e-01
2.422792911529541016e-01
2.379408329725265503e-01
2.350684553384780884e-01
2.365030646324157715e-01
2.416110485792160034e-01
2.470926195383071899e-01
2.496942430734634399e-01
2.487936019897460938e-01
2.466971129179000854e-01
2.464579194784164429e-01
2.493096888065338135e-01
2.532881498336791992e-01
2.546112835407257080e-01
2.506184577941894531e-01
2.420259565114974976e-01
2.324712127447128296e-01
2.255802452564239502e-01
2.219948917627334595e-01
2.188235670328140259e-01
2.122904062271118164e-01
2.011093348264694214e-01
1.878407597541809082e-01
1.769149899482727051e-01
1.710982024669647217e-01
1.692241281270980835e-01
1.671938449144363403e-01
1.613248735666275024e-01
1.512395739555358887e-01
1.399293690919876099e-01
1.312908381223678589e-01
1.275145113468170166e-01
1.283042281866073608e-01
1.319606155157089233e-01
1.367855668067932129e-01
1.413712054491043091e-01
1.441016346216201782e-01
1.436468213796615601e-01
1.400879919528961182e-01
1.356665492057800293e-01
1.338106840848922729e-01
1.366374641656875610e-01
1.429668366909027100e-01
1.486681997776031494e-01
1.497213244438171387e-01
1.452032029628753662e-01
1.376544088125228882e-01
1.305891573429107666e-01
1.252059042453765869e-01
1.190757080912590027e-01
1.080227866768836975e-01
9.008229523897171021e-02
6.828370690345764160e-02
4.963682219386100769e-02
4.181770235300064087e-02
5.028402060270309448e-02
7.876276969909667969e-02
1.321684569120407104e-01
2.175545990467071533e-01
3.410059213638305664e-01
5.001791715621948242e-01
6.780135631561279297e-01
8.432140946388244629e-01
9.595807194709777832e-01
1.000000000000000000e+00
9.571576714515686035e-01
8.453087210655212402e-01
6.926418542861938477e-01
5.291822552680969238e-01
3.767808079719543457e-01
2.462066709995269775e-01
1.410730332136154175e-01
6.332743912935256958e-02
1.566696166992187500e-02
0.000000000000000000e+00
1.351182349026203156e-02
4.670984297990798950e-02
8.600835502147674561e-02
1.197978928685188293e-01
1.429336220026016235e-01
1.565939784049987793e-01
1.646610647439956665e-01
1.695235073566436768e-01
1.707979589700698853e-01
1.672333180904388428e-01
1.597039252519607544e-01
1.519547402858734131e-01
1.483813226222991943e-01
1.509579569101333618e-01
1.576659679412841797e-01
1.640764623880386353e-01
1.664809882640838623e-01
1.645135134458541870e-01
1.610792130231857300e-01
1.599030941724777222e-01
1.625345349311828613e-01
1.671377271413803101e-01
1.702285856008529663e-01
1.696990132331848145e-01
1.666501313447952271e-01
1.645321547985076904e-01
1.663700491189956665e-01
1.721518784761428833e-01
1.786807626485824585e-01
1.820352673530578613e-01
1.808650642633438110e-01
1.776571273803710938e-01
1.767091304063796997e-01
1.806221455335617065e-01
1.881502270698547363e-01
1.950422823429107666e-01
1.974657773971557617e-01
1.952527463436126709e-01
1.919266432523727417e-01
1.918709576129913330e-01
1.968811601400375366e-01
2.046198248863220215e-01
2.104803621768951416e-01
2.113757431507110596e-01
2.081282287836074829e-01
2.047218829393386841e-01
2.052046507596969604e-01
2.103595584630966187e-01
2.171301543712615967e-01
2.212254703044891357e-01
2.209134846925735474e-01
2.186600118875503540e-01
2.192481309175491333e-01
2.258701920509338379e-01
2.372937500476837158e-01
2.484466433525085449e-01
2.542791068553924561e-01
2.536004483699798584e-01
2.498321384191513062e-01
2.481187731027603149e-01
2.513683736324310303e-01
2.581295371055603027e-01
2.640216350555419922e-01
2.656143307685852051e-01
2.633851766586303711e-01
2.611421346664428711e-01
2.628193199634552002e-01
2.692415416240692139e-01
2.772553563117980957e-01
2.821781933307647705e-01
2.814895510673522949e-01
2.768497467041015625e-01
2.727518081665039062e-01
2.731103897094726562e-01
2.781924903392791748e-01
2.842845618724822998e-01
2.865583002567291260e-01
2.829585969448089600e-01
2.759464979171752930e-01
2.704125046730041504e-01
2.695082426071166992e-01
2.718482017517089844e-01
2.725109755992889404e-01
2.671789228916168213e-01
2.560038864612579346e-01
2.436243295669555664e-01
2.354567348957061768e-01
2.334301769733428955e-01
2.345028072595596313e-01
2.331076711416244507e-01
2.255801409482955933e-01
2.128644883632659912e-01
1.996174007654190063e-01
1.904945671558380127e-01
1.865451633930206299e-01
1.844599545001983643e-01
1.793573349714279175e-01
1.689704656600952148e-01
1.556687951087951660e-01
1.447254866361618042e-01
1.402633786201477051e-01
1.420236676931381226e-01
1.455035656690597534e-01
1.457292735576629639e-01
1.411290466785430908e-01
1.344340890645980835e-01
1.300795227289199829e-01
1.304088234901428223e-01
1.336641162633895874e-01
1.355619728565216064e-01
1.330834627151489258e-01
1.271422505378723145e-01
1.218864917755126953e-01
1.213535144925117493e-01
1.262754797935485840e-01
1.333589404821395874e-01
1.276529282331466675e-01
1.314517557621002197e-01
1.388215571641921997e-01
1.452434360980987549e-01
1.475871801376342773e-01
1.470504403114318848e-01
1.481361985206604004e-01
1.548385471105575562e-01
1.668591201305389404e-01
1.791507005691528320e-01
1.854210644960403442e-01
1.829550266265869141e-01
1.747201979160308838e-01
1.671623885631561279e-01
1.656286269426345825e-01
1.706578433513641357e-01
1.781271398067474365e-01
1.828090101480484009e-01
1.826123595237731934e-01
1.797613352537155151e-01
1.784983277320861816e-01
1.813031733036041260e-01
1.865859776735305786e-01
1.899656802415847778e-01
1.878645271062850952e-01
1.804815083742141724e-01
1.715788692235946655e-01
1.653016209602355957e-01
1.628450602293014526e-01
1.615051180124282837e-01
1.572305709123611450e-01
1.483225524425506592e-01
1.373796910047531128e-01
1.293983161449432373e-01
1.278754174709320068e-01
1.318590790033340454e-01
1.367012411355972290e-01
1.376858800649642944e-01
1.337504982948303223e-01
1.277949810028076172e-01
1.236754581332206726e-01
1.226965487003326416e-01
1.228335723280906677e-01
1.212634369730949402e-01
1.174391210079193115e-01
1.140133589506149292e-01
1.144357621669769287e-01
1.195711344480514526e-01
1.265201717615127563e-01
1.308512985706329346e-01
1.301411688327789307e-01
1.260390728712081909e-01
1.230083554983139038e-01
1.246944665908813477e-01
1.305219531059265137e-01
1.353510171175003052e-01
1.328782141208648682e-01
1.201766207814216614e-01
9.994985908269882202e-02
7.879831641912460327e-02
6.290537118911743164e-02
5.428437516093254089e-02
5.072076991200447083e-02
5.007798597216606140e-02
5.541678890585899353e-02
7.739688456058502197e-02
1.309595555067062378e-01
2.276660352945327759e-01
3.682399988174438477e-01
5.392388701438903809e-01
7.154155373573303223e-01
8.668529987335205078e-01
9.672465324401855469e-01
1.000000000000000000e+00
9.611025452613830566e-01
8.592231869697570801e-01
7.134338021278381348e-01
5.488907098770141602e-01
3.905262947082519531e-01
2.564032077789306641e-01
1.543967425823211670e-01
8.296705782413482666e-02
3.592037409543991089e-02
8.462347090244293213e-03
0.000000000000000000e+00
1.201729942113161087e-02
4.328514635562896729e-02
8.663541078567504883e-02
1.297820210456848145e-01
1.606036126613616943e-01
1.731519252061843872e-01
1.701903045177459717e-01
1.605953127145767212e-01
1.533999443054199219e-01
1.525963991880416870e-01
1.559876799583435059e-01
1.584472805261611938e-01
1.567263305187225342e-01
1.520799994468688965e-01
1.488280892372131348e-01
1.507204324007034302e-01
1.575034558773040771e-01
1.649336963891983032e-01
1.681151092052459717e-01
1.654990762472152710e-01
1.601096540689468384e-01
1.570158153772354126e-01
1.593836396932601929e-01
1.659920960664749146e-01
1.724071949720382690e-01
1.746515631675720215e-01
1.724956929683685303e-01
1.693667769432067871e-01
1.694214940071105957e-01
1.742582768201828003e-01
1.817144751548767090e-01
1.874746233224868774e-01
1.885703206062316895e-01
1.856914758682250977e-01
1.825215220451354980e-01
1.827132552862167358e-01
1.869638264179229736e-01
1.924321651458740234e-01
1.951087564229965210e-01
1.934145838022232056e-01
1.899448633193969727e-01
1.895752996206283569e-01
1.956034153699874878e-01
2.067317217588424683e-01
2.177358567714691162e-01
2.233828306198120117e-01
2.224532663822174072e-01
2.186167836189270020e-01
2.174080312252044678e-01
2.218203097581863403e-01
2.299169450998306274e-01
2.367104887962341309e-01
2.384842783212661743e-01
2.359209805727005005e-01
2.334868609905242920e-01
2.357992678880691528e-01
2.438415586948394775e-01
2.540972232818603516e-01
2.613247334957122803e-01
2.629546225070953369e-01
2.611742615699768066e-01
2.609031498432159424e-01
2.657721936702728271e-01
2.749750614166259766e-01
2.836765050888061523e-01
2.868089377880096436e-01
2.832890450954437256e-01
2.770348191261291504e-01
2.738156616687774658e-01
2.768560647964477539e-01
2.843436002731323242e-01
2.910403311252593994e-01
2.924042344093322754e-01
2.881377637386322021e-01
2.823085188865661621e-01
2.798582613468170166e-01
2.825122773647308350e-01
2.873310744762420654e-01
2.891045212745666504e-01
2.845000326633453369e-01
2.747960686683654785e-01
2.648654282093048096e-01
2.592891752719879150e-01
2.587650716304779053e-01
2.594716846942901611e-01
2.560513019561767578e-01
2.459727525711059570e-01
2.314133048057556152e-01
2.174533903598785400e-01
2.082975208759307861e-01
2.040916085243225098e-01
2.011310309171676636e-01
1.950154602527618408e-01
1.843331903219223022e-01
1.717279404401779175e-01
1.617221087217330933e-01
1.569294035434722900e-01
1.559209227561950684e-01
1.544637233018875122e-01
1.490857601165771484e-01
1.401239633560180664e-01
1.314757317304611206e-01
1.273196190595626831e-01
1.284803152084350586e-01
1.315647065639495850e-01
1.317616999149322510e-01
1.270087361335754395e-01
1.196613907814025879e-01
1.145400479435920715e-01
1.150030195713043213e-01
1.200218275189399719e-01
1.248146519064903259e-01
1.247681155800819397e-01
1.191971302032470703e-01
1.120820790529251099e-01
2.388569563627243042e-01
2.404350191354751587e-01
2.467042803764343262e-01
2.556244730949401855e-01
2.624581754207611084e-01
2.638698816299438477e-01
2.599529027938842773e-01
2.532038688659667969e-01
2.460243403911590576e-01
2.387921959161758423e-01
2.299469411373138428e-01
2.178392559289932251e-01
2.030543386936187744e-01
1.889564245939254761e-01
1.800054162740707397e-01
1.790199875831604004e-01
1.852244734764099121e-01
1.942630261182785034e-01
2.004604488611221313e-01
2.002343088388442993e-01
1.949019581079483032e-01
1.891651004552841187e-01
1.875506788492202759e-01
1.907250434160232544e-01
1.948278099298477173e-01
1.946417987346649170e-01
1.878118366003036499e-01
1.767182052135467529e-01
1.663947105407714844e-01
1.605474203824996948e-01
1.587542891502380371e-01
1.573298424482345581e-01
1.529533118009567261e-01
1.457501202821731567e-01
1.390793323516845703e-01
1.365237981081008911e-01
1.388031393289566040e-01
1.430091261863708496e-01
1.448377519845962524e-01
1.419378221035003662e-01
1.358019560575485229e-01
1.305161416530609131e-01
1.295138001441955566e-01
1.329271197319030762e-01
1.374370604753494263e-01
1.388182789087295532e-01
1.353458315134048462e-01
1.293117702007293701e-01
1.252557486295700073e-01
1.266001611948013306e-01
1.328580379486083984e-01
1.399059444665908813e-01
1.431756913661956787e-01
1.411536484956741333e-01
1.362491399049758911e-01
1.323364824056625366e-01
1.309708505868911743e-01
1.294163167476654053e-01
1.224308684468269348e-01
1.067777797579765320e-01
8.454828709363937378e-02
6.243385002017021179e-02
4.759145900607109070e-02
4.386403411626815796e-02
5.181867256760597229e-02
7.279603928327560425e-02
1.134734377264976501e-01
1.856234669685363770e-01
2.996551692485809326e-01
4.554436504840850830e-01
6.359673142433166504e-01
8.093935251235961914e-01
9.396755099296569824e-01
1.000000000000000000e+00
9.817695021629333496e-01
8.947600722312927246e-01
7.604996562004089355e-01
6.032978296279907227e-01
4.438109695911407471e-01
2.970766425132751465e-01
1.737789362668991089e-01
8.133800327777862549e-02
2.357644960284233093e-02
0.000000000000000000e+00
5.283604841679334641e-03
3.006355091929435730e-02
6.368210911750793457e-02
9.742534160614013672e-02
1.262886077165603638e-01
1.485924720764160156e-01
1.638627052307128906e-01
1.713886260986328125e-01
1.707554310560226440e-01
1.636008769273757935e-01
1.543252468109130859e-01
1.484270244836807251e-01
1.491490751504898071e-01
1.552375108003616333e-01
1.618675291538238525e-01
1.642246693372726440e-01
1.611787378787994385e-01
1.559648811817169189e-01
1.533323079347610474e-01
1.556044518947601318e-01
1.609867662191390991e-01
1.650870889425277710e-01
1.648968756198883057e-01
1.614290773868560791e-01
1.588398218154907227e-01
1.609391272068023682e-01
1.679514348506927490e-01
1.759846657514572144e-01
1.799946874380111694e-01
1.777667552232742310e-01
1.717175394296646118e-01
1.669540703296661377e-01
1.675228178501129150e-01
1.732771545648574829e-01
1.801350563764572144e-01
1.834489107131958008e-01
1.817568838596343994e-01
1.779918819665908813e-01
1.768915057182312012e-01
1.810629069805145264e-01
1.887373775243759155e-01
1.951816976070404053e-01
1.965730935335159302e-01
1.932715177536010742e-01
1.896876543760299683e-01
1.907326579093933105e-01
1.977517157793045044e-01
2.073434442281723022e-01
2.138407081365585327e-01
2.139995396137237549e-01
2.096036672592163086e-01
2.061097770929336548e-01
2.084290087223052979e-01
2.172396630048751831e-01
2.285149991512298584e-01
2.368029803037643433e-01
2.396551668643951416e-01
2.392839193344116211e-01
2.403815239667892456e-01
2.461451441049575806e-01
2.554081678390502930e-01
2.634674608707427979e-01
2.661214768886566162e-01
2.632106244564056396e-01
2.590488195419311523e-01
2.590079307556152344e-01
2.651969492435455322e-01
2.746105194091796875e-01
2.815272212028503418e-01
2.822018563747406006e-01
2.779894471168518066e-01
2.741577029228210449e-01
2.756011486053466797e-01
2.829032540321350098e-01
2.919412553310394287e-01
2.971290349960327148e-01
2.957664728164672852e-01
2.900110483169555664e-01
2.847937643527984619e-01
2.838922142982482910e-01
2.868449687957763672e-01
2.893177270889282227e-01
2.866213917732238770e-01
2.774781584739685059e-01
2.651568353176116943e-01
2.548437118530273438e-01
2.495786845684051514e-01
2.477674186229705811e-01
2.445430904626846313e-01
2.359321564435958862e-01
2.223223298788070679e-01
2.081455141305923462e-01
1.983588337898254395e-01
1.944424062967300415e-01
1.931144595146179199e-01
1.890027374029159546e-01
1.790887266397476196e-01
1.651799380779266357e-01
1.524405926465988159e-01
1.454225331544876099e-01
1.445118188858032227e-01
1.457373052835464478e-01
1.441700756549835205e-01
1.379700005054473877e-01
1.297644674777984619e-01
1.242695450782775879e-01
1.242572814226150513e-01
1.281198710203170776e-01
1.310149431228637695e-01
1.287364810705184937e-01
1.212358772754669189e-01
1.127016544342041016e-01
1.082332730293273926e-01
1.098952218890190125e-01
1.151188164949417114e-01
1.189131066203117371e-01
1.332800835371017456e-01
1.355686187744140625e-01
1.430383473634719849e-01
1.511729359626770020e-01
1.556123048067092896e-01
1.558065861463546753e-01
1.553466618061065674e-01
1.588181704282760620e-01
1.678425967693328857e-01
1.792666912078857422e-01
1.873058527708053589e-01
1.880313158035278320e-01
1.824038177728652954e-01
1.757543981075286865e-01
1.739220172166824341e-01
1.789465099573135376e-01
1.877062171697616577e-01
1.944878250360488892e-01
1.955375820398330688e-01
1.918627470731735229e-01
1.879177987575531006e-01
1.877938508987426758e-01
1.917029470205307007e-01
1.958235055208206177e-01
1.954240649938583374e-01
1.888311207294464111e-01
1.785928905010223389e-01
1.691945493221282959e-01
1.635660231113433838e-01
1.608331501483917236e-01
1.574215441942214966e-01
1.505360305309295654e-01
1.408373415470123291e-01
1.320747733116149902e-01
1.280845701694488525e-01
1.294996291399002075e-01
1.330838650465011597e-01
1.342017799615859985e-01
1.306203007698059082e-01
1.243251860141754150e-01
1.199190467596054077e-01
1.209989264607429504e-01
1.271898001432418823e-01
1.341804713010787964e-01
1.369694769382476807e-01
1.338275372982025146e-01
1.277035623788833618e-01
1.237099245190620422e-01
1.250280737876892090e-01
1.303248703479766846e-01
1.350122392177581787e-01
1.353313773870468140e-01
1.315060108900070190e-01
1.274619698524475098e-01
1.273024082183837891e-01
1.315951347351074219e-01
1.362448185682296753e-01
1.351184248924255371e-01
1.243193447589874268e-01
1.051207110285758972e-01
8.314257860183715820e-02
6.485933065414428711e-02
5.366091802716255188e-02
4.879999905824661255e-02
4.868006333708763123e-02
5.623112991452217102e-02
8.207918703556060791e-02
1.415916681289672852e-01
2.468504160642623901e-01
3.977622985839843750e-01
5.776678323745727539e-01
7.567797303199768066e-01
9.019442796707153320e-01
9.872095584869384766e-01
1.000000000000000000e+00
9.418289065361022949e-01
8.253031373023986816e-01
6.701174378395080566e-01
4.994205236434936523e-01
3.361943960189819336e-01
1.989170014858245850e-01
9.817826002836227417e-02
3.538053482770919800e-02
5.175247322767972946e-03
0.000000000000000000e+00
1.345394738018512726e-02
4.084846377372741699e-02
7.741816341876983643e-02
1.169031113386154175e-01
1.515151113271713257e-01
1.742086261510848999e-01
1.818044781684875488e-01
1.768530607223510742e-01
1.664687842130661011e-01
1.585376262664794922e-01
1.574562489986419678e-01
1.621170490980148315e-01
1.674638986587524414e-01
1.688252389430999756e-01
1.655045896768569946e-01
1.611332744359970093e-01
1.604054123163223267e-01
1.651367694139480591e-01
1.726828962564468384e-01
1.780434995889663696e-01
1.780123412609100342e-01
1.737897098064422607e-01
1.699700653553009033e-01
1.709184497594833374e-01
1.772026717662811279e-01
1.848798692226409912e-01
1.886975467205047607e-01
1.865158975124359131e-01
1.812122464179992676e-01
1.784311383962631226e-01
1.821362227201461792e-01
1.913001835346221924e-01
2.007675915956497192e-01
2.053426951169967651e-01
2.039126306772232056e-01
2.000398486852645874e-01
1.986669301986694336e-01
2.019990235567092896e-01
2.077189683914184570e-01
2.112798392772674561e-01
2.100163251161575317e-01
2.057577222585678101e-01
2.035419344902038574e-01
2.076167911291122437e-01
2.177771329879760742e-01
2.292222827672958374e-01
2.360194772481918335e-01
2.357934713363647461e-01
2.314858436584472656e-01
2.289749681949615479e-01
2.326498180627822876e-01
2.420763224363327026e-01
2.525488138198852539e-01
2.589394748210906982e-01
2.598611414432525635e-01
2.584334909915924072e-01
2.594928741455078125e-01
2.656893432140350342e-01
2.752439379692077637e-01
2.834674119949340820e-01
2.867015898227691650e-01
2.853402495384216309e-01
2.833945751190185547e-01
2.850712835788726807e-01
2.912673950195312500e-01
2.988120615482330322e-01
3.031541705131530762e-01
3.023504614830017090e-01
2.988919019699096680e-01
2.976884245872497559e-01
3.019785284996032715e-01
3.103575706481933594e-01
3.174780309200286865e-01
3.181919157505035400e-01
3.117702305316925049e-01
3.025666177272796631e-01
2.968010902404785156e-01
2.978620827198028564e-01
3.037413656711578369e-01
3.085712194442749023e-01
3.070993423461914062e-01
2.985608577728271484e-01
2.869555354118347168e-01
2.776381969451904297e-01
2.732309103012084961e-01
2.716774642467498779e-01
2.680689394474029541e-01
2.589069306850433350e-01
2.451959252357482910e-01
2.315979897975921631e-01
2.227728813886642456e-01
2.196016013622283936e-01
2.183865457773208618e-01
2.140497118234634399e-01
2.045323550701141357e-01
1.925700008869171143e-01
1.833224147558212280e-01
1.801945567131042480e-01
1.818266957998275757e-01
1.832654774188995361e-01
1.798023283481597900e-01
1.708643883466720581e-01
1.604933887720108032e-01
1.537919491529464722e-01
1.528711766004562378e-01
1.552098840475082397e-01
1.558104753494262695e-01
1.514316052198410034e-01
1.434051394462585449e-01
1.365793198347091675e-01
1.355154663324356079e-01
1.407347023487091064e-01
1.482257395982742310e-01
1.524334698915481567e-01
1.506379842758178711e-01
1.401224732398986816e-01
1.368034780025482178e-01
1.368089318275451660e-01
1.427714824676513672e-01
1.528320759534835815e-01
1.620341986417770386e-01
1.661536991596221924e-01
1.650358885526657104e-01
1.624461114406585693e-01
1.627777814865112305e-01
1.674064397811889648e-01
1.735668927431106567e-01
1.768264025449752808e-01
1.750589162111282349e-01
1.704993546009063721e-01
1.681919842958450317e-01
1.720116734504699707e-01
1.812675893306732178e-01
1.909465491771697998e-01
1.954251825809478760e-01
1.928313523530960083e-01
1.862744092941284180e-01
1.810974031686782837e-01
1.805811673402786255e-01
1.830754131078720093e-01
1.832452565431594849e-01
1.763655692338943481e-01
1.623675078153610229e-01
1.462935805320739746e-01
1.347115039825439453e-01
1.312327682971954346e-01
1.339772045612335205e-01
1.372828632593154907e-01
1.361794322729110718e-01
1.301148533821105957e-01
1.229252889752388000e-01
1.193018704652786255e-01
1.209236234426498413e-01
1.251116245985031128e-01
1.271441280841827393e-01
1.243481040000915527e-01
1.183173879981040955e-01
1.135564520955085754e-01
1.138479039072990417e-01
1.190829947590827942e-01
1.251916140317916870e-01
1.272839456796646118e-01
1.235847026109695435e-01
1.168480738997459412e-01
1.122513040900230408e-01
1.133292317390441895e-01
1.191428154706954956e-01
1.251763105392456055e-01
1.270308643579483032e-01
1.239533647894859314e-01
1.190081015229225159e-01
1.157877743244171143e-01
1.146689280867576599e-01
1.117343679070472717e-01
1.018541604280471802e-01
8.339136838912963867e-02
6.073349714279174805e-02
4.212671518325805664e-02
3.497865051031112671e-02
4.240645468235015869e-02
6.436479836702346802e-02
1.026266068220138550e-01
1.646436899900436401e-01
2.613279223442077637e-01
3.991523981094360352e-01
5.708894729614257812e-01
7.514496445655822754e-01
9.038624763488769531e-01
9.930967688560485840e-01
1.000000000000000000e+00
9.277753233909606934e-01
7.982617020606994629e-01
6.411308050155639648e-01
4.824434816837310791e-01
3.384424448013305664e-01
2.165677249431610107e-01
1.200358271598815918e-01
5.108364671468734741e-02
1.128702610731124878e-02
0.000000000000000000e+00
1.237341389060020447e-02
3.972253948450088501e-02
7.252401113510131836e-02
1.036539897322654724e-01
1.295224428176879883e-01
1.490827649831771851e-01
1.616693735122680664e-01
1.661905646324157715e-01
1.623897701501846313e-01
1.527990400791168213e-01
1.428584307432174683e-01
1.382145881652832031e-01
1.411173790693283081e-01
1.487867832183837891e-01
1.554034203290939331e-01
1.565522998571395874e-01
1.525081694126129150e-01
1.477465480566024780e-01
1.472591757774353027e-01
1.526465862989425659e-01
1.608947217464447021e-01
1.668230742216110229e-01
1.673040688037872314e-01
1.637163609266281128e-01
1.605135351419448853e-01
1.616202145814895630e-01
1.672835499048233032e-01
1.738650649785995483e-01
1.768161952495574951e-01
1.744415909051895142e-01
1.694521605968475342e-01
1.667267382144927979e-01
1.695141792297363281e-01
1.766016036272048950e-01
1.831510066986083984e-01
1.847681254148483276e-01
1.812389642000198364e-01
1.768028736114501953e-01
1.767050176858901978e-01
1.828470379114151001e-01
1.921615004539489746e-01
1.990694701671600342e-01
2.000153511762619019e-01
1.963506639003753662e-01
1.930742263793945312e-01
1.948289573192596436e-01
2.021007090806961060e-01
2.109472751617431641e-01
2.162547111511230469e-01
2.158582210540771484e-01
2.124655097723007202e-01
2.113693803548812866e-01
2.161312401294708252e-01
2.254916131496429443e-01
2.342875152826309204e-01
2.376440614461898804e-01
2.350901067256927490e-01
2.309599518775939941e-01
2.310526967048645020e-01
2.380423992872238159e-01
2.492941766977310181e-01
2.587926387786865234e-01
2.620117962360382080e-01
2.594513595104217529e-01
2.559130191802978516e-01
2.566343545913696289e-01
2.630686163902282715e-01
2.718006372451782227e-01
2.775192856788635254e-01
2.773692607879638672e-01
2.732126712799072266e-01
2.699740529060363770e-01
2.716150283813476562e-01
2.779485881328582764e-01
2.846606373786926270e-01
2.868673801422119141e-01
2.830280959606170654e-01
2.761813402175903320e-01
2.713073492050170898e-01
2.711879611015319824e-01
2.740240991115570068e-01
2.747314870357513428e-01
2.691372632980346680e-01
2.574975788593292236e-01
2.443870604038238525e-01
2.352595925331115723e-01
2.323651462793350220e-01
2.329873591661453247e-01
2.316245883703231812e-01
2.242153286933898926e-01
2.113395929336547852e-01
1.975177377462387085e-01
1.876295357942581177e-01
1.830277740955352783e-01
1.806232482194900513e-01
1.757051199674606323e-01
1.660912036895751953e-01
1.541525274515151978e-01
1.447375565767288208e-01
1.412017792463302612e-01
1.425159722566604614e-01
1.440692096948623657e-01
1.414472013711929321e-01
1.340782940387725830e-01
1.255405694246292114e-01
1.206550151109695435e-01
1.215459406375885010e-01
1.258679628372192383e-01
1.288162022829055786e-01
1.270763128995895386e-01
1.215243786573410034e-01
1.164211034774780273e-01
1.159200519323348999e-01
1.205505579710006714e-01
1.267120540142059326e-01
