1.993147730827331543e-01
2.080805450677871704e-01
2.101676315069198608e-01
2.056696265935897827e-01
2.012071758508682251e-01
2.046524584293365479e-01
2.184927761554718018e-01
2.372788041830062866e-01
2.512968480587005615e-01
2.539141774177551270e-01
2.466694265604019165e-01
2.379018813371658325e-01
2.362818419933319092e-01
2.439782768487930298e-01
2.552530169486999512e-01
2.615357935428619385e-01
2.589570581912994385e-01
2.515427470207214355e-01
2.476875633001327515e-01
2.528131604194641113e-01
2.644364535808563232e-01
2.738482058048248291e-01
2.731596529483795166e-01
2.616949677467346191e-01
2.462834566831588745e-01
2.358499169349670410e-01
2.343411743640899658e-01
2.376625984907150269e-01
2.372661828994750977e-01
2.271014004945755005e-01
2.088908553123474121e-01
1.904443055391311646e-01
1.787375211715698242e-01
1.743196099996566772e-01
1.718740910291671753e-01
1.657847464084625244e-01
1.559105217456817627e-01
1.477615535259246826e-01
1.471125185489654541e-01
1.538937389850616455e-01
1.617253422737121582e-01
1.632313877344131470e-01
1.563988327980041504e-01
1.465361863374710083e-01
1.415825635194778442e-01
1.457566767930984497e-01
1.559187620878219604e-01
1.641854345798492432e-01
1.643811017274856567e-01
1.570391207933425903e-01
1.485977619886398315e-01
1.462619155645370483e-01
1.519630700349807739e-01
1.607578098773956299e-01
1.645436137914657593e-01
1.581690162420272827e-01
1.429529786109924316e-01
1.249266564846038818e-01
1.100363656878471375e-01
9.964492917060852051e-02
9.022749215364456177e-02
7.755579799413681030e-02
6.231805309653282166e-02
5.249346792697906494e-02
6.119593605399131775e-02
1.014461144804954529e-01
1.805865615606307983e-01
2.976198196411132812e-01
4.446222782135009766e-01
6.082292199134826660e-01
7.698360085487365723e-01
9.058806896209716797e-01
9.899771213531494141e-01
1.000000000000000000e+00
9.278388619422912598e-01
7.860379219055175781e-01
6.054273247718811035e-01
4.232291579246520996e-01
2.685559093952178955e-01
1.537810564041137695e-01
7.615175843238830566e-02
2.696977555751800537e-02
1.192154944874346256e-03
0.000000000000000000e+00
2.531423047184944153e-02
7.270582765340805054e-02
1.289216578006744385e-01
1.764516234397888184e-01
2.028418630361557007e-01
2.072953432798385620e-01
1.997070759534835815e-01
1.931221038103103638e-01
1.948351413011550903e-01
2.025210410356521606e-01
2.078529000282287598e-01
2.044441103935241699e-01
1.935847848653793335e-01
1.832869946956634521e-01
1.819246113300323486e-01
1.912353932857513428e-01
2.047795206308364868e-01
2.131162434816360474e-01
2.113626003265380859e-01
2.029205411672592163e-01
1.962784081697463989e-01
1.980400979518890381e-01
2.073706239461898804e-01
2.167060524225234985e-01
2.182523161172866821e-01
2.107594013214111328e-01
2.006940245628356934e-01
1.970065236091613770e-01
2.039891630411148071e-01
2.174949049949645996e-01
2.282450944185256958e-01
2.294363379478454590e-01
2.222284078598022461e-01
2.145449370145797729e-01
2.146872282028198242e-01
2.242949604988098145e-01
2.370027005672454834e-01
2.435855120420455933e-01
2.396332919597625732e-01
2.293226122856140137e-01
2.221346348524093628e-01
2.255733162164688110e-01
2.390973716974258423e-01
2.546297907829284668e-01
2.629944980144500732e-01
2.612385749816894531e-01
2.544527053833007812e-01
2.514346539974212646e-01
2.575129270553588867e-01
2.702564299106597900e-01
2.816279530525207520e-01
2.848612666130065918e-01
2.800188362598419189e-01
2.737382650375366211e-01
2.738989591598510742e-01
2.831197977066040039e-01
2.965257465839385986e-01
3.054635226726531982e-01
3.047536611557006836e-01
2.969010770320892334e-01
2.898810207843780518e-01
2.907422780990600586e-01
2.997502684593200684e-01
3.100909590721130371e-01
3.136441409587860107e-01
3.079959452152252197e-01
2.984361648559570312e-01
2.936538755893707275e-01
2.985836267471313477e-01
3.102184236049652100e-01
3.198622465133666992e-01
3.201901912689208984e-01
3.110734522342681885e-01
2.996840178966522217e-01
2.947986721992492676e-01
2.998667955398559570e-01
3.103006780147552490e-01
3.172261714935302734e-01
3.145624697208404541e-01
3.037836551666259766e-01
2.924058735370635986e-01
2.878179848194122314e-01
2.910943031311035156e-01
2.959808111190795898e-01
2.941558361053466797e-01
2.823455333709716797e-01
2.650510370731353760e-01
2.509315013885498047e-01
2.458891868591308594e-01
2.480915039777755737e-01
2.495755851268768311e-01
2.431722879409790039e-01
2.288103103637695312e-01
2.135511785745620728e-01
2.060531675815582275e-01
2.093764245510101318e-01
2.182773649692535400e-01
2.232044339179992676e-01
2.179888337850570679e-01
2.048461586236953735e-01
1.924471706151962280e-01
1.889994591474533081e-01
1.957821846008300781e-01
2.061307281255722046e-01
2.110375910997390747e-01
2.065049111843109131e-01
1.966034919023513794e-01
1.897502690553665161e-01
1.917219907045364380e-01
2.007929682731628418e-01
2.091797739267349243e-01
2.096497118473052979e-01
2.016285210847854614e-01
1.917425990104675293e-01
1.887028366327285767e-01
1.962317228317260742e-01
1.917871236801147461e-01
1.921726167201995850e-01
1.881092190742492676e-01
1.864864975214004517e-01
1.932537853717803955e-01
2.079062759876251221e-01
2.230505347251892090e-01
2.301238179206848145e-01
2.263168841600418091e-01
2.170566469430923462e-01
2.117595970630645752e-01
2.165784537792205811e-01
2.295396625995635986e-01
2.420837432146072388e-01
2.463412433862686157e-01
2.414696067571640015e-01
2.339220345020294189e-01
2.318658977746963501e-01
2.384563833475112915e-01
2.492017298936843872e-01
2.554996907711029053e-01
2.518346011638641357e-01
2.402566969394683838e-01
2.285846322774887085e-01
2.240527868270874023e-01
2.273123413324356079e-01
2.318211197853088379e-01
2.289236634969711304e-01
2.150439471006393433e-01
1.948851644992828369e-01
1.779036819934844971e-01
1.712317764759063721e-01
1.743013858795166016e-01
1.794753521680831909e-01
1.782982051372528076e-01
1.683940440416336060e-01
1.551144868135452271e-01
1.469846218824386597e-01
1.487093567848205566e-01
1.570697873830795288e-01
1.635134816169738770e-01
1.612610518932342529e-01
1.508877873420715332e-01
1.397762298583984375e-01
1.361849457025527954e-01
1.424153000116348267e-01
1.530462354421615601e-01
1.595081388950347900e-01
1.570970118045806885e-01
1.487526595592498779e-01
1.423156261444091797e-01
1.440077275037765503e-01
1.532722711563110352e-01
1.629228591918945312e-01
1.646567434072494507e-01
1.555177867412567139e-01
1.396434307098388672e-01
1.243541836738586426e-01
1.141717731952667236e-01
1.075554788112640381e-01
9.906845539808273315e-02
8.545108139514923096e-02
7.022910565137863159e-02
6.339018046855926514e-02
7.736133038997650146e-02
1.218061447143554688e-01
2.004828751087188721e-01
3.116340637207031250e-01
4.498842954635620117e-01
6.059361100196838379e-01
7.640941143035888672e-01
9.007896780967712402e-01
9.875214695930480957e-01
1.000000000000000000e+00
9.301066994667053223e-01
7.926656603813171387e-01
6.208350062370300293e-01
4.515505433082580566e-01
3.100593090057373047e-01
2.029783129692077637e-01
1.233484745025634766e-01
6.232796609401702881e-02
1.887181773781776428e-02
0.000000000000000000e+00
1.253843680024147034e-02
5.405261367559432983e-02
1.100248396396636963e-01
1.602937132120132446e-01
1.900503635406494141e-01
1.974380165338516235e-01
1.920451223850250244e-01
1.866410225629806519e-01
1.877341121435165405e-01
1.927267760038375854e-01
1.945779025554656982e-01
1.894606351852416992e-01
1.805538386106491089e-01
1.754002422094345093e-01
1.795153915882110596e-01
1.913323849439620972e-01
2.030963897705078125e-01
2.069288194179534912e-01
2.013069540262222290e-01
1.920138597488403320e-01
1.875727325677871704e-01
1.924235522747039795e-01
2.035155147314071655e-01
2.126720845699310303e-01
2.136528789997100830e-01
2.072478681802749634e-01
2.004407197237014771e-01
2.008127570152282715e-01
2.101851105690002441e-01
2.230784744024276733e-01
2.310035675764083862e-01
2.295082062482833862e-01
2.216913104057312012e-01
2.156056761741638184e-01
2.177242785692214966e-01
2.276462614536285400e-01
2.385101914405822754e-01
2.428203672170639038e-01
2.386298775672912598e-01
2.310492545366287231e-01
2.280134856700897217e-01
2.337976843118667603e-01
2.455355525016784668e-01
2.554318308830261230e-01
2.572652995586395264e-01
2.516227364540100098e-01
2.455080002546310425e-01
2.467841356992721558e-01
2.576742768287658691e-01
2.726954221725463867e-01
2.827781140804290771e-01
2.826228439807891846e-01
2.748576998710632324e-01
2.677539288997650146e-01
2.687191367149353027e-01
2.783875465393066406e-01
2.901087701320648193e-01
2.956549525260925293e-01
2.920156121253967285e-01
2.837780117988586426e-01
2.793038785457611084e-01
2.839942276477813721e-01
2.955974340438842773e-01
3.058772087097167969e-01
3.075346052646636963e-01
3.001721203327178955e-01
2.905514538288116455e-01
2.870243489742279053e-01
2.926599979400634766e-01
3.028062880039215088e-01
3.091022968292236328e-01
3.066872656345367432e-01
2.982991039752960205e-01
2.917739748954772949e-01
2.935915291309356689e-01
3.032197654247283936e-01
3.132160007953643799e-01
3.151564300060272217e-01
3.065201938152313232e-01
2.928520739078521729e-01
2.833080887794494629e-01
2.834214866161346436e-01
2.904846966266632080e-01
2.955579757690429688e-01
2.907030284404754639e-01
2.756215631961822510e-01
2.580296695232391357e-01
2.477641552686691284e-01
2.490986585617065430e-01
2.573218047618865967e-01
2.624386847019195557e-01
2.572667598724365234e-01
2.431223094463348389e-01
2.283202260732650757e-01
2.213936001062393188e-01
2.240707278251647949e-01
2.300389260053634644e-01
2.303602248430252075e-01
2.210730761289596558e-01
2.064114958047866821e-01
1.952147185802459717e-01
1.938025802373886108e-01
2.009555548429489136e-01
2.090716361999511719e-01
2.105588018894195557e-01
2.039694786071777344e-01
1.949487179517745972e-01
1.915217638015747070e-01
1.975706964731216431e-01
2.094382941722869873e-01
2.186377942562103271e-01
2.186794430017471313e-01
2.102543711662292480e-01
2.006277292966842651e-01
1.980302333831787109e-01
2.049110680818557739e-01
1.687381416559219360e-01
1.770177781581878662e-01
1.765367537736892700e-01
1.695184558629989624e-01
1.639641672372817993e-01
1.672572046518325806e-01
1.799337267875671387e-01
1.952017694711685181e-01
2.043725699186325073e-01
2.039448469877243042e-01
1.981647312641143799e-01
1.952751576900482178e-01
2.006750255823135376e-01
2.123687714338302612e-01
2.225892692804336548e-01
2.243292033672332764e-01
2.173255383968353271e-01
2.080737054347991943e-01
2.047324180603027344e-01
2.104229629039764404e-01
2.206465452909469604e-01
2.269235998392105103e-01
2.238955795764923096e-01
2.136531472206115723e-01
2.037303894758224487e-01
2.008427977561950684e-01
2.051761746406555176e-01
2.098775357007980347e-01
2.065754383802413940e-01
1.922813951969146729e-01
1.721640527248382568e-01
1.556789427995681763e-01
1.496129631996154785e-01
1.531219482421875000e-01
1.586558371782302856e-01
1.583983898162841797e-01
1.506235748529434204e-01
1.407169848680496216e-01
1.365068554878234863e-01
1.414442360401153564e-01
1.512096971273422241e-01
1.569168716669082642e-01
1.524539738893508911e-01
1.398226171731948853e-01
1.276952475309371948e-01
1.247544139623641968e-01
1.328712254762649536e-01
1.456263959407806396e-01
1.532818228006362915e-01
1.505711674690246582e-01
1.405574381351470947e-01
1.317823380231857300e-01
1.312931627035140991e-01
1.389162391424179077e-01
1.473515182733535767e-01
1.478250324726104736e-01
1.367147862911224365e-01
1.177404150366783142e-01
9.875662624835968018e-02
8.571852743625640869e-02
7.863575965166091919e-02
7.291414588689804077e-02
6.507313251495361328e-02
5.829567462205886841e-02
6.344515085220336914e-02
9.534835815429687500e-02
1.658035963773727417e-01
2.775636613368988037e-01
4.229886829853057861e-01
5.865824818611145020e-01
7.481375932693481445e-01
8.852611780166625977e-01
9.755625724792480469e-01
1.000000000000000000e+00
9.489460587501525879e-01
8.284630179405212402e-01
6.618466377258300781e-01
4.826070964336395264e-01
3.217369019985198975e-01
1.969243139028549194e-01
1.098661124706268311e-01
5.224674940109252930e-02
1.601806655526161194e-02
0.000000000000000000e+00
7.712383288890123367e-03
4.011945426464080811e-02
8.984711766242980957e-02
1.416085362434387207e-01
1.792779415845870972e-01
1.947238743305206299e-01
1.915655583143234253e-01
1.815212965011596680e-01
1.760235130786895752e-01
1.788785159587860107e-01
1.854255944490432739e-01
1.879178732633590698e-01
1.827266961336135864e-01
1.735719889402389526e-01
1.682044416666030884e-01
1.718372553586959839e-01
1.825370490550994873e-01
1.926036477088928223e-01
1.948794573545455933e-01
1.889123320579528809e-01
1.812443435192108154e-01
1.801301687955856323e-01
1.886216402053833008e-01
2.017064392566680908e-01
2.101477533578872681e-01
2.081043720245361328e-01
1.979285180568695068e-01
1.882031708955764771e-01
1.871868968009948730e-01
1.961981505155563354e-01
2.087105661630630493e-01
2.157538831233978271e-01
2.132709175348281860e-01
2.051757872104644775e-01
2.000376582145690918e-01
2.041278183460235596e-01
2.163476198911666870e-01
2.290015667676925659e-01
2.341747134923934937e-01
2.302572578191757202e-01
2.231795489788055420e-01
2.216167598962783813e-01
2.298918962478637695e-01
2.442091703414916992e-01
2.555177807807922363e-01
2.569329142570495605e-01
2.494802922010421753e-01
2.412954121828079224e-01
2.413014322519302368e-01
2.520991265773773193e-01
2.677665352821350098e-01
2.785996496677398682e-01
2.789803445339202881e-01
2.718449532985687256e-01
2.659450471401214600e-01
2.688028812408447266e-01
2.805394232273101807e-01
2.937473952770233154e-01
2.996019721031188965e-01
2.951703369617462158e-01
2.856461107730865479e-01
2.802133858203887939e-01
2.845539450645446777e-01
2.961520254611968994e-01
3.064004182815551758e-01
3.075956106185913086e-01
2.991564869880676270e-01
2.878521084785461426e-01
2.823977172374725342e-01
2.864178717136383057e-01
2.957679927349090576e-01
3.020837306976318359e-01
2.997888028621673584e-01
2.905994653701782227e-01
2.817525565624237061e-01
2.801766693592071533e-01
2.866043150424957275e-01
2.945690751075744629e-01
2.958073914051055908e-01
2.872947454452514648e-01
2.738148868083953857e-01
2.641257643699645996e-01
2.638855874538421631e-01
2.708649337291717529e-01
2.765044867992401123e-01
2.729896008968353271e-01
2.595523297786712646e-01
2.429416030645370483e-01
2.319938540458679199e-01
2.306471914052963257e-01
2.350020557641983032e-01
2.367453873157501221e-01
2.301306128501892090e-01
2.168388515710830688e-01
2.043566554784774780e-01
1.998256295919418335e-01
2.038921862840652466e-01
2.100045531988143921e-01
2.097921371459960938e-01
2.000397145748138428e-01
1.854787915945053101e-01
1.748709231615066528e-01
1.741151213645935059e-01
1.814947277307510376e-01
1.890718191862106323e-01
1.892517656087875366e-01
1.809800863265991211e-01
1.701938062906265259e-01
1.650122553110122681e-01
1.689966917037963867e-01
1.784154474735260010e-01
1.852487325668334961e-01
1.839866191148757935e-01
1.760783046483993530e-01
1.685030907392501831e-01
1.682161241769790649e-01
1.760208457708358765e-01
1.782442033290863037e-01
1.732967942953109741e-01
1.675374954938888550e-01
1.688627898693084717e-01
1.799835264682769775e-01
1.958050429821014404e-01
2.070094197988510132e-01
2.072710692882537842e-01
1.981469690799713135e-01
1.879524588584899902e-01
1.855296194553375244e-01
1.934512406587600708e-01
2.064505964517593384e-01
2.158241719007492065e-01
2.166090905666351318e-01
2.113022953271865845e-01
2.069977968931198120e-01
2.092900574207305908e-01
2.172584384679794312e-01
2.242357581853866577e-01
2.236556410789489746e-01
2.147843539714813232e-01
2.033459842205047607e-01
1.968166232109069824e-01
1.982278823852539062e-01
2.034149765968322754e-01
2.041811197996139526e-01
1.951786875724792480e-01
1.783358007669448853e-01
1.613261401653289795e-01
1.517897695302963257e-01
1.516576707363128662e-01
1.559813767671585083e-01
1.571613103151321411e-01
1.513933539390563965e-01
1.415886282920837402e-01
1.346773207187652588e-01
1.359274387359619141e-01
1.441108584403991699e-01
1.521490216255187988e-01
1.526539027690887451e-01
1.438901275396347046e-01
1.312386691570281982e-01
1.231133118271827698e-01
1.244991198182106018e-01
1.332555711269378662e-01
1.420298218727111816e-01
1.442713141441345215e-01
1.394467800855636597e-01
1.328553110361099243e-01
1.311979144811630249e-01
1.369200646877288818e-01
1.459602862596511841e-01
1.505381315946578979e-01
1.451713293790817261e-01
1.305798441171646118e-01
1.125791966915130615e-01
9.752440452575683594e-02
8.765485882759094238e-02
8.008630573749542236e-02
7.069516927003860474e-02
5.985529720783233643e-02
5.551984161138534546e-02
7.154723256826400757e-02
1.220118403434753418e-01
2.144403159618377686e-01
3.459392488002777100e-01
5.040510296821594238e-01
6.700509190559387207e-01
8.222702741622924805e-01
9.388322234153747559e-01
1.000000000000000000e+00
9.916570782661437988e-01
9.107961058616638184e-01
7.700064182281494141e-01
5.961583852767944336e-01
4.215637445449829102e-01
2.723171710968017578e-01
1.601351499557495117e-01
8.290947973728179932e-02
3.259826079010963440e-02
4.489343147724866867e-03
0.000000000000000000e+00
2.150317281484603882e-02
6.502563506364822388e-02
1.175904050469398499e-01
1.621351242065429688e-01
1.864013969898223877e-01
1.893824338912963867e-01
1.804329901933670044e-01
1.719804704189300537e-01
1.712194383144378662e-01
1.765541434288024902e-01
1.808441281318664551e-01
1.783986538648605347e-01
1.701232045888900757e-01
1.624675393104553223e-01
1.622018963098526001e-01
1.704656630754470825e-01
1.814788132905960083e-01
1.871361583471298218e-01
1.837779134511947632e-01
1.751832515001296997e-01
1.693978011608123779e-01
1.722493320703506470e-01
1.824822425842285156e-01
1.926488280296325684e-01
1.952903717756271362e-01
1.889840662479400635e-01
1.794066280126571655e-01
1.741998493671417236e-01
1.764046847820281982e-01
1.828982979059219360e-01
1.878781765699386597e-01
1.886771768331527710e-01
1.881623864173889160e-01
1.916505694389343262e-01
2.009875029325485229e-01
2.121031284332275391e-01
2.183590233325958252e-01
2.164785712957382202e-01
2.097833752632141113e-01
2.057983428239822388e-01
2.100408673286437988e-01
2.214488387107849121e-01
2.328066676855087280e-01
2.366973310708999634e-01
2.317696213722229004e-01
2.240879982709884644e-01
2.224829196929931641e-01
2.316478341817855835e-01
2.482352554798126221e-01
2.631099224090576172e-01
2.685956954956054688e-01
2.644542455673217773e-01
2.578250765800476074e-01
2.574044764041900635e-01
2.664661705493927002e-01
2.802595794200897217e-01
2.900317311286926270e-01
2.903980016708374023e-01
2.837601006031036377e-01
2.782414853572845459e-01
2.812040150165557861e-01
2.929342389106750488e-01
3.062200248241424561e-01
3.121229708194732666e-01
3.072929382324218750e-01
2.966686189174652100e-01
2.894909679889678955e-01
2.919560670852661133e-01
3.022131025791168213e-01
3.119326829910278320e-01
3.132911324501037598e-01
3.054667413234710693e-01
2.951005399227142334e-01
2.906706333160400391e-01
2.954083085060119629e-01
3.043814301490783691e-01
3.083153069019317627e-01
3.011907339096069336e-01
2.850844264030456543e-01
2.683253288269042969e-01
2.590561807155609131e-01
2.588483393192291260e-01
2.617118060588836670e-01
2.593811154365539551e-01
2.481288611888885498e-01
2.316645085811614990e-01
2.178853601217269897e-01
2.125205695629119873e-01
2.144439816474914551e-01
2.166030853986740112e-01
2.119422256946563721e-01
1.993634700775146484e-01
1.843940913677215576e-01
1.747488081455230713e-01
1.739894151687622070e-01
1.786098480224609375e-01
1.809184104204177856e-01
1.756217330694198608e-01
1.643132418394088745e-01
1.540171653032302856e-01
1.514505892992019653e-01
1.572810858488082886e-01
1.652655601501464844e-01
1.672297865152359009e-01
1.598275005817413330e-01
1.475061178207397461e-01
1.389035582542419434e-01
1.400490552186965942e-01
1.494129747152328491e-01
1.590526252985000610e-01
1.610521674156188965e-01
1.539403498172760010e-01
1.437306106090545654e-01
1.389002054929733276e-01
1.436659991741180420e-01
1.542670726776123047e-01
1.684805005788803101e-01
1.766318827867507935e-01
1.777841001749038696e-01
1.715642213821411133e-01
1.641023904085159302e-01
1.632559746503829956e-01
1.720491498708724976e-01
1.861440688371658325e-01
1.971864998340606689e-01
1.993087530136108398e-01
1.936427205801010132e-01
1.870338469743728638e-01
1.865306049585342407e-01
1.937452107667922974e-01
2.037247270345687866e-01
2.091573625802993774e-01
2.066607028245925903e-01
1.995556950569152832e-01
1.950771063566207886e-01
1.985262334346771240e-01
2.088214904069900513e-01
2.190132141113281250e-01
2.219705581665039062e-01
2.162393480539321899e-01
2.070237845182418823e-01
2.019897550344467163e-01
2.049202024936676025e-01
2.125043123960494995e-01
2.169361710548400879e-01
2.123996913433074951e-01
1.999886631965637207e-01
1.867173165082931519e-01
1.798079162836074829e-01
1.806643158197402954e-01
1.837322860956192017e-01
1.814331114292144775e-01
1.705996990203857422e-01
1.552986651659011841e-01
1.432933658361434937e-01
1.391120553016662598e-01
1.406329423189163208e-01
1.417653113603591919e-01
1.384093612432479858e-01
1.325759738683700562e-01
1.303939819335937500e-01
1.358731091022491455e-01
1.462884992361068726e-01
1.541533023118972778e-01
1.534376144409179688e-01
1.447610706090927124e-01
1.352196037769317627e-01
1.323705613613128662e-01
1.381197869777679443e-01
1.471271961927413940e-01
1.509375125169754028e-01
1.445524096488952637e-01
1.297527849674224854e-01
1.129988655447959900e-01
1.003802344202995300e-01
9.309966117143630981e-02
8.737701922655105591e-02
7.882820069789886475e-02
6.801769137382507324e-02
6.263161450624465942e-02
7.506787776947021484e-02
1.174898892641067505e-01
1.964304894208908081e-01
3.106112778186798096e-01
4.522427022457122803e-01
6.087860465049743652e-01
7.635236978530883789e-01
8.955776095390319824e-01
9.814258813858032227e-01
1.000000000000000000e+00
9.408968091011047363e-01
8.117917776107788086e-01
6.387812495231628418e-01
4.571976959705352783e-01
2.978427112102508545e-01
1.764756739139556885e-01
9.293303638696670532e-02
3.883357718586921692e-02
7.880485616624355316e-03
0.000000000000000000e+00
1.715369708836078644e-02
5.596118047833442688e-02
1.047181114554405212e-01
1.476936042308807373e-01
1.736562252044677734e-01
1.816617995500564575e-01
1.795793622732162476e-01
1.764626204967498779e-01
1.756491661071777344e-01
1.743049621582031250e-01
1.684004962444305420e-01
1.584677100181579590e-01
1.503544449806213379e-01
1.505498588085174561e-01
1.599892675876617432e-01
1.725947856903076172e-01
1.800037026405334473e-01
1.783108711242675781e-01
1.710778921842575073e-01
1.662012338638305664e-01
1.693175435066223145e-01
1.790520995855331421e-01
1.882041990756988525e-01
1.900418549776077271e-01
1.839837580919265747e-01
1.761442571878433228e-01
1.742499470710754395e-01
1.812652647495269775e-01
1.929816156625747681e-01
2.012675106525421143e-01
2.007255554199218750e-01
1.930807977914810181e-01
1.856910437345504761e-01
1.857818365097045898e-01
1.947384029626846313e-01
2.069339752197265625e-01
2.142010778188705444e-01
2.124145776033401489e-01
2.048036307096481323e-01
1.992472559213638306e-01
2.021448016166687012e-01
2.129749059677124023e-01
2.246477007865905762e-01
2.294039726257324219e-01
2.252633571624755859e-01
2.177945822477340698e-01
2.157402634620666504e-01
2.240678220987319946e-01
2.397082298994064331e-01
2.538317441940307617e-01
2.589302062988281250e-01
2.548802495002746582e-01
2.487255632877349854e-01
2.489252686500549316e-01
2.584407627582550049e-01
2.724883258342742920e-01
2.824948728084564209e-01
2.833602130413055420e-01
2.776120305061340332e-01
2.731028795242309570e-01
2.765436768531799316e-01
2.878952026367187500e-01
3.002223670482635498e-01
3.053452074527740479e-01
3.005346655845642090e-01
2.907582223415374756e-01
2.849134802818298340e-01
2.888289093971252441e-01
3.004920184612274170e-01
3.116365373134613037e-01
3.145013749599456787e-01
3.080430626869201660e-01
2.984801530838012695e-01
2.940502762794494629e-01
2.980896830558776855e-01
3.061556816101074219e-01
3.097521960735321045e-01
3.036195635795593262e-01
2.903293967247009277e-01
2.779637873172760010e-01
2.734786272048950195e-01
2.768541276454925537e-01
2.808855772018432617e-01
2.771781980991363525e-01
2.631252408027648926e-01
2.441133707761764526e-01
2.291781753301620483e-01
2.239856123924255371e-01
2.264100015163421631e-01
2.283955216407775879e-01
2.227191478013992310e-01
2.086577415466308594e-01
1.923183649778366089e-01
1.816567778587341309e-01
1.800969988107681274e-01
1.839300394058227539e-01
1.854110360145568848e-01
1.791835576295852661e-01
1.666332334280014038e-01
1.545248925685882568e-01
1.496023088693618774e-01
1.530442088842391968e-01
1.594909876585006714e-01
1.613588333129882812e-01
1.550884842872619629e-01
1.440659612417221069e-01
1.358342766761779785e-01
1.360431015491485596e-01
1.436592042446136475e-01
1.517879068851470947e-01
1.534135341644287109e-01
1.472135782241821289e-01
1.386240720748901367e-01
1.353603154420852661e-01
1.408893167972564697e-01
1.514391601085662842e-01
1.349065005779266357e-01
1.459304243326187134e-01
1.549811810255050659e-01
1.624629944562911987e-01
1.695411503314971924e-01
1.749291270971298218e-01
1.756184399127960205e-01
1.708386391401290894e-01
1.647618561983108521e-01
1.645152717828750610e-01
1.740434020757675171e-01
1.891840100288391113e-01
2.002182155847549438e-01
2.001033872365951538e-01
1.899824440479278564e-01
1.786833852529525757e-01
1.758924871683120728e-01
1.845890730619430542e-01
1.988497972488403320e-01
2.090230882167816162e-01
2.097266167402267456e-01
2.037556469440460205e-01
1.990019828081130981e-01
2.016073167324066162e-01
2.106429040431976318e-01
2.189468145370483398e-01
2.192188352346420288e-01
2.102322131395339966e-01
1.977330297231674194e-01
1.897353529930114746e-01
1.901245415210723877e-01
1.954440027475357056e-01
1.976218819618225098e-01
1.905856132507324219e-01
1.754390299320220947e-01
1.596926003694534302e-01
1.515037715435028076e-01
1.531796753406524658e-01
1.593787670135498047e-01
1.615012735128402710e-01
1.549721807241439819e-01
1.428917497396469116e-01
1.332655549049377441e-01
1.324276030063629150e-01
1.396888941526412964e-01
1.476641893386840820e-01
1.484737247228622437e-01
1.403852552175521851e-01
1.292518973350524902e-01
1.237928047776222229e-01
1.286682635545730591e-01
1.405918151140213013e-01
1.508072167634963989e-01
1.520889252424240112e-01
1.443470865488052368e-01
1.342006921768188477e-01
1.292193531990051270e-01
1.314881443977355957e-01
1.356578618288040161e-01
1.330688893795013428e-01
1.188601255416870117e-01
9.599201381206512451e-02
7.364092767238616943e-02
6.102260947227478027e-02
6.311333179473876953e-02
8.210735023021697998e-02
1.222659796476364136e-01
1.928318142890930176e-01
3.041357100009918213e-01
4.578836858272552490e-01
6.379812359809875488e-01
8.115995526313781738e-01
9.411322474479675293e-01
1.000000000000000000e+00
9.821565747261047363e-01
9.003587961196899414e-01
7.759357690811157227e-01
6.292225718498229980e-01
4.754092991352081299e-01
3.267111182212829590e-01
1.955091506242752075e-01
9.363053739070892334e-02
2.851155027747154236e-02
0.000000000000000000e+00
7.487580878660082817e-04
1.998682320117950439e-02
4.843835905194282532e-02
8.081512153148651123e-02
1.148772388696670532e-01
1.481696665287017822e-01
1.756571978330612183e-01
1.908904910087585449e-01
1.904239654541015625e-01
1.775957345962524414e-01
1.618714928627014160e-01
1.534661650657653809e-01
1.567677259445190430e-01
1.675172150135040283e-01
1.765272468328475952e-01
1.771151870489120483e-01
1.702679544687271118e-01
1.630980074405670166e-01
1.627855151891708374e-01
1.705695390701293945e-01
1.806597858667373657e-01
1.852806061506271362e-01
1.813359111547470093e-01
1.729890555143356323e-01
1.682402938604354858e-01
1.724646240472793579e-01
1.838068813085556030e-01
1.945349425077438354e-01
1.972174793481826782e-01
1.907931715250015259e-01
1.812906116247177124e-01
1.771548390388488770e-01
1.826006770133972168e-01
1.942734420299530029e-01
2.039422094821929932e-01
2.052718698978424072e-01
1.989781260490417480e-01
1.920342743396759033e-01
1.922713369131088257e-01
2.020508795976638794e-01
2.162688374519348145e-01
2.264654785394668579e-01
2.276948988437652588e-01
2.224438935518264771e-01
2.181296050548553467e-01
2.210547178983688354e-01
2.310432791709899902e-01
2.415903508663177490e-01
2.454912811517715454e-01
2.412207573652267456e-01
2.344164103269577026e-01
2.333398610353469849e-01
2.422002404928207397e-01
2.574554085731506348e-01
2.704138755798339844e-01
2.742161154747009277e-01
2.693537175655364990e-01
2.630960643291473389e-01
2.637895643711090088e-01
2.740580141544342041e-01
2.887813150882720947e-01
2.992015182971954346e-01
3.000036180019378662e-01
2.934781610965728760e-01
2.874951958656311035e-01
2.892854213714599609e-01
2.995057702064514160e-01
3.117198646068572998e-01
3.176769316196441650e-01
3.142356872558593750e-01
3.058890104293823242e-01
3.010339736938476562e-01
3.050612807273864746e-01
3.156130313873291016e-01
3.243145644664764404e-01
3.235736191272735596e-01
3.128995597362518311e-01
2.992418706417083740e-01
2.915039658546447754e-01
2.935168445110321045e-01
3.009639382362365723e-01
3.048341870307922363e-01
2.988400459289550781e-01
2.842187583446502686e-01
2.685871422290802002e-01
2.598420679569244385e-01
2.598468959331512451e-01
2.628815174102783203e-01
2.604982852935791016e-01
2.487059235572814941e-01
2.312570661306381226e-01
2.166278958320617676e-01
2.111576497554779053e-01
2.136403471231460571e-01
2.163082957267761230e-01
2.113386988639831543e-01
1.975768506526947021e-01
1.814967244863510132e-01
1.718938052654266357e-01
1.726922988891601562e-01
1.795661747455596924e-01
1.834812611341476440e-01
1.782518029212951660e-01
1.656789779663085938e-01
1.537135094404220581e-01
1.499645709991455078e-01
1.553413867950439453e-01
1.632632613182067871e-01
1.649933457374572754e-01
1.570096164941787720e-01
1.438896358013153076e-01
1.346433013677597046e-01
1.356951594352722168e-01
1.457667648792266846e-01
1.567800343036651611e-01
1.603609174489974976e-01
1.690324395895004272e-01
1.631908416748046875e-01
1.572657376527786255e-01
1.585979610681533813e-01
1.694475859403610229e-01
1.848799288272857666e-01
1.964010745286941528e-01
1.986089944839477539e-01
1.933608204126358032e-01
1.878315806388854980e-01
1.886646896600723267e-01
1.963987946510314941e-01
2.052683979272842407e-01
2.084320932626724243e-01
2.040642350912094116e-01
1.969746798276901245e-01
1.947125792503356934e-01
2.012211978435516357e-01
2.131904512643814087e-01
2.225068062543869019e-01
2.227337360382080078e-01
2.143989950418472290e-01
2.043917924165725708e-01
2.002148479223251343e-01
2.038452774286270142e-01
2.099705934524536133e-01
2.103045284748077393e-01
2.005985081195831299e-01
1.841848045587539673e-01
1.692667156457901001e-01
1.625571697950363159e-01
1.641063690185546875e-01
1.675947904586791992e-01
1.658432185649871826e-01
1.568623632192611694e-01
1.453323364257812500e-01
1.387336105108261108e-01
1.410838365554809570e-01
1.494183987379074097e-01
1.559995263814926147e-01
1.544719487428665161e-01
1.450739204883575439e-01
1.342847198247909546e-01
1.296976208686828613e-01
1.340465396642684937e-01
1.430089026689529419e-01
1.487797349691390991e-01
1.465540379285812378e-01
1.384270191192626953e-01
1.313789635896682739e-01
1.316360682249069214e-01
1.395598053932189941e-01
1.491968035697937012e-01
1.530282944440841675e-01
1.477438956499099731e-01
1.365250796079635620e-01
1.257610023021697998e-01
1.194333732128143311e-01
1.157995685935020447e-01
1.091152429580688477e-01
9.520290791988372803e-02
7.620535790920257568e-02
6.069732457399368286e-02
5.994843319058418274e-02
8.332771062850952148e-02
1.358912885189056396e-01
2.189503014087677002e-01
3.320039212703704834e-01
4.724364578723907471e-01
6.318037509918212891e-01
7.919187545776367188e-01
9.248906970024108887e-01
1.000000000000000000e+00
9.957035779953002930e-01
9.102445840835571289e-01
7.639431953430175781e-01
5.906039476394653320e-01
4.229525625705718994e-01
2.808875441551208496e-01
1.695362478494644165e-01
8.604394644498825073e-02
2.859543636441230774e-02
0.000000000000000000e+00
3.742827568203210831e-03
3.686308115720748901e-02
8.654781430959701538e-02
1.345030814409255981e-01
1.661325097084045410e-01
1.777675449848175049e-01
1.764657795429229736e-01
1.733953058719635010e-01
1.755042970180511475e-01
1.815505623817443848e-01
1.852348297834396362e-01
1.821520477533340454e-01
1.740896552801132202e-01
1.677748262882232666e-01
1.693767011165618896e-01
1.790318936109542847e-01
1.903367340564727783e-01
1.953945457935333252e-01
1.912952661514282227e-01
1.822234690189361572e-01
1.760101467370986938e-01
1.778838485479354858e-01
1.862179338932037354e-01
1.939972043037414551e-01
1.947900056838989258e-01
1.883631944656372070e-01
1.808454692363739014e-01
1.797600090503692627e-01
1.877960860729217529e-01
2.004468888044357300e-01
2.094732224941253662e-01
2.098031789064407349e-01
2.035641521215438843e-01
1.980516761541366577e-01
1.997174024581909180e-01
2.087305784225463867e-01
2.187583297491073608e-01
2.221922725439071655e-01
2.166761308908462524e-01
2.070674896240234375e-01
2.016938179731369019e-01
2.058040350675582886e-01
2.174280136823654175e-01
2.289641797542572021e-01
2.335135042667388916e-01
2.303825467824935913e-01
2.254347205162048340e-01
2.261686474084854126e-01
2.355295717716217041e-01
2.495103329420089722e-01
2.603064179420471191e-01
2.627154588699340820e-01
2.583456337451934814e-01
2.542596757411956787e-01
2.573357224464416504e-01
2.686610519886016846e-01
2.825464308261871338e-01
2.910842597484588623e-01
2.908431291580200195e-01
2.857350409030914307e-01
2.838346660137176514e-01
2.908039689064025879e-01
3.048456311225891113e-01
3.179067373275756836e-01
3.221224248409271240e-01
3.162997364997863770e-01
3.067821860313415527e-01
3.022994101047515869e-01
3.070767521858215332e-01
3.175583183765411377e-01
3.255330622196197510e-01
3.250002562999725342e-01
3.169321715831756592e-01
3.081491291522979736e-01
3.056449294090270996e-01
3.109486103057861328e-01
3.187680244445800781e-01
3.212310075759887695e-01
3.144508004188537598e-01
3.014286458492279053e-01
2.895387709140777588e-01
2.845330536365509033e-01
2.857338488101959229e-01
2.866467833518981934e-01
2.804490327835083008e-01
2.658622860908508301e-01
2.483166158199310303e-01
2.356613576412200928e-01
2.319735586643218994e-01
2.342411875724792480e-01
2.348591834306716919e-01
2.277675867080688477e-01
2.133331894874572754e-01
1.977889239788055420e-01
1.881905645132064819e-01
1.867565661668777466e-01
1.891329288482666016e-01
1.880641728639602661e-01
1.796641349792480469e-01
1.665865182876586914e-01
1.558140963315963745e-01
1.530428975820541382e-01
1.578303873538970947e-01
1.639015823602676392e-01
1.642600744962692261e-01
1.569240540266036987e-01
1.462870240211486816e-01
1.395309120416641235e-01
1.407248079776763916e-01
1.475147306919097900e-01
1.530396491289138794e-01
1.517020761966705322e-01
1.439619064331054688e-01
1.359574794769287109e-01
1.344783902168273926e-01
1.413377523422241211e-01
1.516045182943344116e-01
2.810837030410766602e-01
2.905658185482025146e-01
3.013450801372528076e-01
3.049725592136383057e-01
2.988680303096771240e-01
2.882879376411437988e-01
2.819302678108215332e-01
2.847151160240173340e-01
2.934002578258514404e-01
2.990352809429168701e-01
2.941428422927856445e-01
2.785835266113281250e-01
2.595027089118957520e-01
2.457934617996215820e-01
2.413992434740066528e-01
2.427211254835128784e-01
2.417741566896438599e-01
2.329316884279251099e-01
2.170923650264739990e-01
2.013553082942962646e-01
1.930620521306991577e-01
1.949401050806045532e-01
2.041406035423278809e-01
2.143001407384872437e-01
2.191041260957717896e-01
2.153196781873703003e-01
2.037574797868728638e-01
1.886581033468246460e-01
1.758190095424652100e-01
1.694650053977966309e-01
1.693044900894165039e-01
1.702987998723983765e-01
1.663258075714111328e-01
1.550483107566833496e-01
1.407361328601837158e-01
1.304660886526107788e-01
1.288788914680480957e-01
1.342298835515975952e-01
1.397711932659149170e-01
1.391255557537078857e-01
1.314172595739364624e-01
1.216925010085105896e-01
1.168284714221954346e-01
1.199573054909706116e-01
1.279681473970413208e-01
1.341357678174972534e-01
1.337965577840805054e-01
1.281180530786514282e-01
1.228324547410011292e-01
1.235565021634101868e-01
1.309020221233367920e-01
1.398288160562515259e-01
1.436146646738052368e-01
1.396280825138092041e-01
1.312755495309829712e-01
1.252279579639434814e-01
1.256209313869476318e-01
1.300680339336395264e-01
1.309366524219512939e-01
1.210364475846290588e-01
9.967349469661712646e-02
7.383153587579727173e-02
5.384004116058349609e-02
4.662701860070228577e-02
5.251096934080123901e-02
6.814820319414138794e-02
9.403330832719802856e-02
1.394506543874740601e-01
2.194243967533111572e-01
3.449262976646423340e-01
5.117062926292419434e-01
6.954720616340637207e-01
8.590207099914550781e-01
9.671518802642822266e-01
1.000000000000000000e+00
9.583003520965576172e-01
8.584827780723571777e-01
7.228666543960571289e-01
5.714929699897766113e-01
4.196645915508270264e-01
2.795512080192565918e-01
1.618714034557342529e-01
7.495173066854476929e-02
2.196639031171798706e-02
0.000000000000000000e+00
1.669553690589964390e-03
1.888146810233592987e-02
4.592102020978927612e-02
7.924886047840118408e-02
1.152112111449241638e-01
1.480707824230194092e-01
1.705770045518875122e-01
1.778505146503448486e-01
1.712570190429687500e-01
1.583850532770156860e-01
1.487396806478500366e-01
1.481534540653228760e-01
1.552841216325759888e-01
1.631043255329132080e-01
1.647992432117462158e-01
1.591433584690093994e-01
1.512566208839416504e-01
1.484981924295425415e-01
1.545314788818359375e-01
1.661356836557388306e-01
1.754886955022811890e-01
1.765548139810562134e-01
1.700458824634552002e-01
1.627503186464309692e-01
1.620354801416397095e-01
1.698284894227981567e-01
1.809966415166854858e-01
1.875150948762893677e-01
1.850875616073608398e-01
1.767050921916961670e-01
1.699856370687484741e-01
1.711013168096542358e-01
1.798830479383468628e-01
1.899940371513366699e-01
1.942137777805328369e-01
1.903823018074035645e-01
1.831317245960235596e-01
1.801136583089828491e-01
1.859209686517715454e-01
1.981275975704193115e-01
2.088364958763122559e-01
2.111876457929611206e-01
2.050348967313766479e-01
1.970585584640502930e-01
1.956299096345901489e-01
2.040853202342987061e-01
2.180932313203811646e-01
2.290803939104080200e-01
2.313478589057922363e-01
2.266528010368347168e-01
2.223264276981353760e-01
2.250071913003921509e-01
2.351181805133819580e-01
2.466532438993453979e-01
2.522769868373870850e-01
2.494115382432937622e-01
2.424173802137374878e-01
2.391277104616165161e-01
2.446595430374145508e-01
2.572572231292724609e-01
2.696004807949066162e-01
2.747837007045745850e-01
2.717306911945343018e-01
2.658113241195678711e-01
2.644562721252441406e-01
2.709843814373016357e-01
2.816215455532073975e-01
2.884995639324188232e-01
2.863144576549530029e-01
2.769604325294494629e-01
2.680466473102569580e-01
2.670105695724487305e-01
2.751775681972503662e-01
2.866174280643463135e-01
2.928148508071899414e-01
2.894289791584014893e-01
2.796156406402587891e-01
2.710385322570800781e-01
2.695543467998504639e-01
2.742993533611297607e-01
2.783350646495819092e-01
2.744282186031341553e-01
2.611584663391113281e-01
2.440535724163055420e-01
2.312051355838775635e-01
2.267550975084304810e-01
2.275719344615936279e-01
2.260421216487884521e-01
2.166416943073272705e-01
2.005652338266372681e-01
1.846886873245239258e-01
1.762087941169738770e-01
1.769133955240249634e-01
1.817820072174072266e-01
1.828647702932357788e-01
1.757081151008605957e-01
1.626915335655212402e-01
1.508225351572036743e-01
1.460575759410858154e-01
1.484811007976531982e-01
1.522519439458847046e-01
1.505386084318161011e-01
1.413330882787704468e-01
1.291641592979431152e-01
1.214034259319305420e-01
1.222299113869667053e-01
1.289745271205902100e-01
1.340601444244384766e-01
1.311932504177093506e-01
1.205226704478263855e-01
1.086936444044113159e-01
1.036302074790000916e-01
1.083665713667869568e-01
1.186141893267631531e-01
1.264314651489257812e-01
1.584313213825225830e-01
1.653385311365127563e-01
1.656189858913421631e-01
1.617807745933532715e-01
1.599061340093612671e-01
1.647340059280395508e-01
1.756444275379180908e-01
1.870112419128417969e-01
1.925390958786010742e-01
1.901143491268157959e-01
1.832700371742248535e-01
1.783645004034042358e-01
1.797823309898376465e-01
1.867253482341766357e-01
1.941212415695190430e-01
1.969055533409118652e-01
1.942841261625289917e-01
1.901992112398147583e-01
1.899584233760833740e-01
1.956443190574645996e-01
2.038988322019577026e-01
2.084617912769317627e-01
2.053323835134506226e-01
1.961096078157424927e-01
1.865931302309036255e-01
1.820251941680908203e-01
1.825336664915084839e-01
1.831091642379760742e-01
1.780435144901275635e-01
1.660611778497695923e-01
1.516960710287094116e-01
1.418451219797134399e-01
1.402813494205474854e-01
1.447361260652542114e-01
1.488346457481384277e-01
1.472472250461578369e-01
1.399663686752319336e-01
1.318865269422531128e-01
1.287583708763122559e-01
1.324732601642608643e-01
1.394114345312118530e-01
1.432792842388153076e-01
1.404799222946166992e-01
1.330379247665405273e-01
1.269380301237106323e-01
1.272432357072830200e-01
1.337420046329498291e-01
1.409132778644561768e-01
1.423871070146560669e-01
1.363368779420852661e-01
1.270260959863662720e-01
1.214369237422943115e-01
1.237760782241821289e-01
1.320478320121765137e-01
1.394108384847640991e-01
1.392125040292739868e-01
1.296732276678085327e-01
1.143944188952445984e-01
9.909733384847640991e-02
8.727696537971496582e-02
7.815343886613845825e-02
6.871438026428222656e-02
5.844943597912788391e-02
5.315335839986801147e-02
6.452271342277526855e-02
1.062634661793708801e-01
1.878840029239654541e-01
3.099029362201690674e-01
4.627954661846160889e-01
6.291496753692626953e-01
7.871894240379333496e-01
9.143143892288208008e-01
9.902513027191162109e-01
1.000000000000000000e+00
9.380555152893066406e-01
8.125006556510925293e-01
6.455078721046447754e-01
4.675326943397521973e-01
3.071399927139282227e-01
1.816142797470092773e-01
9.426727890968322754e-02
3.887038677930831909e-02
8.288322016596794128e-03
0.000000000000000000e+00
1.443949993699789047e-02
4.940689727663993835e-02
9.602180868387222290e-02
1.404056996107101440e-01
1.699532121419906616e-01
1.799187213182449341e-01
1.752281934022903442e-01
1.662314981222152710e-01
1.617303937673568726e-01
1.640042960643768311e-01
1.688860654830932617e-01
1.705390512943267822e-01
1.668333560228347778e-01
1.610191911458969116e-01
1.588733941316604614e-01
1.637211143970489502e-01
1.733254194259643555e-01
1.813510060310363770e-01
1.825804263353347778e-01
1.770901381969451904e-01
1.701880693435668945e-01
1.683181375265121460e-01
1.737657785415649414e-01
1.828228980302810669e-01
1.888859570026397705e-01
1.880018264055252075e-01
1.821028590202331543e-01
1.774020493030548096e-01
1.794167160987854004e-01
1.882851868867874146e-01
1.984423547983169556e-01
2.031727284193038940e-01
1.999935358762741089e-01
1.925631612539291382e-01
1.875802576541900635e-01
1.896411925554275513e-01
1.977298706769943237e-01
2.060672342777252197e-01
2.091188132762908936e-01
2.063294351100921631e-01
2.024597674608230591e-01
2.035022377967834473e-01
2.115133106708526611e-01
2.226834446191787720e-01
2.301981300115585327e-01
2.300192266702651978e-01
2.243773043155670166e-01
2.198408246040344238e-01
2.223051786422729492e-01
2.321561276912689209e-01
2.445036023855209351e-01
2.536391019821166992e-01
2.579010426998138428e-01
2.606458067893981934e-01
2.663979828357696533e-01
2.758758068084716797e-01
2.851284146308898926e-01
2.890336215496063232e-01
2.862460017204284668e-01
2.811827659606933594e-01
2.807793021202087402e-01
2.886275351047515869e-01
3.015298843383789062e-01
3.121358454227447510e-01
3.146583139896392822e-01
3.096840083599090576e-01
3.034782707691192627e-01
3.029962182044982910e-01
3.101382255554199219e-01
3.201397061347961426e-01
3.255830109119415283e-01
3.226619362831115723e-01
3.142426908016204834e-01
3.072661459445953369e-01
3.070751428604125977e-01
3.128019869327545166e-01
3.180865645408630371e-01
3.162457346916198730e-01
3.057037889957427979e-01
2.911660075187683105e-01
2.796842753887176514e-01
2.750134468078613281e-01
2.745838463306427002e-01
2.716912627220153809e-01
2.612077593803405762e-01
2.440542876720428467e-01
2.264750152826309204e-01
2.153567224740982056e-01
2.126919925212860107e-01
2.140913754701614380e-01
2.123081088066101074e-01
2.031397670507431030e-01
1.886149942874908447e-01
1.751317828893661499e-01
1.683733612298965454e-01
1.685430109500885010e-01
1.703283339738845825e-01
1.674174964427947998e-01
1.579209119081497192e-01
1.460250020027160645e-01
1.385221034288406372e-01
1.392355561256408691e-01
1.456302404403686523e-01
1.506181508302688599e-01
1.483415365219116211e-01
1.391330957412719727e-01
1.290523856878280640e-01
1.249631643295288086e-01
1.290405243635177612e-01
1.369707286357879639e-01
1.414003372192382812e-01
1.382574886083602905e-01
1.300275325775146484e-01
1.236133798956871033e-01
1.247444599866867065e-01
1.330019980669021606e-01
1.757661700248718262e-01
1.695943921804428101e-01
1.666375249624252319e-01
1.709053069353103638e-01
1.809964179992675781e-01
1.912384033203125000e-01
1.963075399398803711e-01
1.954700052738189697e-01
1.928647160530090332e-01
1.938220560550689697e-01
2.001292407512664795e-01
2.083743512630462646e-01
2.128495872020721436e-01
2.107370197772979736e-01
2.048521041870117188e-01
2.015266120433807373e-01
2.055734694004058838e-01
2.160993814468383789e-01
2.268669754266738892e-01
2.310536354780197144e-01
2.266829311847686768e-01
2.180094271898269653e-01
2.119954675436019897e-01
2.129193544387817383e-01
2.187192738056182861e-01
2.224979102611541748e-01
2.180419564247131348e-01
2.048334628343582153e-01
1.885184645652770996e-01
1.766462922096252441e-01
1.730397045612335205e-01
1.751593947410583496e-01
1.765467077493667603e-01
1.723572164773941040e-01
1.632590442895889282e-01
1.545876711606979370e-01
1.518204957246780396e-01
1.559505760669708252e-01
1.625193208456039429e-01
1.651695072650909424e-01
1.606964468955993652e-01
1.514822244644165039e-01
1.435473859310150146e-01
1.418610811233520508e-01
1.464416682720184326e-01
1.523860394954681396e-01
1.540894657373428345e-01
1.498223245143890381e-01
1.429862976074218750e-01
1.393008381128311157e-01
1.419760733842849731e-01
1.490339040756225586e-01
1.550335735082626343e-01
1.555137187242507935e-01
1.505372822284698486e-01
1.440361738204956055e-01
1.400963664054870605e-01
1.388891637325286865e-01
1.359743475914001465e-01
1.259203553199768066e-01
1.074879616498947144e-01
8.592571318149566650e-02
7.037296146154403687e-02
6.900234520435333252e-02
8.565096557140350342e-02
1.211050748825073242e-01
1.776949316263198853e-01
2.617898285388946533e-01
3.804364204406738281e-01
5.329679250717163086e-01
7.034570574760437012e-01
8.606767654418945312e-01
9.683131575584411621e-01
1.000000000000000000e+00
9.502688050270080566e-01
8.352084159851074219e-01
6.834675669670104980e-01
5.235381722450256348e-01
3.745409250259399414e-01
2.451495528221130371e-01
1.388859152793884277e-01
5.951554700732231140e-02
1.213891711086034775e-02
0.000000000000000000e+00
1.950908638536930084e-02
5.889711529016494751e-02
1.024194061756134033e-01
1.380714476108551025e-01
1.621506512165069580e-01
1.777486354112625122e-01
1.891077756881713867e-01
1.969847977161407471e-01
1.986328661441802979e-01
1.920085251331329346e-01
1.798493266105651855e-01
1.690990775823593140e-01
1.663042604923248291e-01
1.729204803705215454e-01
1.842546164989471436e-01
1.928773522377014160e-01
1.942393332719802856e-01
1.897119134664535522e-01
1.850623339414596558e-01
1.856674104928970337e-01
1.920967549085617065e-01
1.998244374990463257e-01
2.032431513071060181e-01
2.003979831933975220e-01
1.946623027324676514e-01
1.920075267553329468e-01
1.960555613040924072e-01
2.048920542001724243e-01
2.126393020153045654e-01
2.143500745296478271e-01
2.098333686590194702e-01
2.038168758153915405e-01
2.022278010845184326e-01
2.075509876012802124e-01
2.168205082416534424e-01
2.239788621664047241e-01
2.248569279909133911e-01
2.204829752445220947e-01
2.160950899124145508e-01
2.169626206159591675e-01
2.240948528051376343e-01
2.333116680383682251e-01
2.387220263481140137e-01
2.377539724111557007e-01
2.332247942686080933e-01
2.309443503618240356e-01
2.350745052099227905e-01
2.446514666080474854e-01
2.543890178203582764e-01
2.589730024337768555e-01
2.577063143253326416e-01
2.550540864467620850e-01
2.570647895336151123e-01
2.662635445594787598e-01
2.793440818786621094e-01
2.895740866661071777e-01
2.922112643718719482e-01
2.884886860847473145e-01
2.846682071685791016e-01
2.871741652488708496e-01
2.974193990230560303e-01
3.105581402778625488e-01
3.192639052867889404e-01
3.196941316127777100e-01
3.144898712635040283e-01
3.104273080825805664e-01
3.129703104496002197e-01
3.218674063682556152e-01
3.311852514743804932e-01
3.343614041805267334e-01
3.296296000480651855e-01
3.214567005634307861e-01
3.170213401317596436e-01
3.204232454299926758e-01
3.291858434677124023e-01
3.360337615013122559e-01
3.347031474113464355e-01
3.248983621597290039e-01
3.124911785125732422e-01
3.048835992813110352e-01
3.047531545162200928e-01
3.080588877201080322e-01
3.075130283832550049e-01
2.986248433589935303e-01
2.833467721939086914e-01
2.680801749229431152e-01
2.585226297378540039e-01
2.552743554115295410e-01
2.535914182662963867e-01
2.476292103528976440e-01
2.353944182395935059e-01
2.203464508056640625e-01
2.084541618824005127e-01
2.033266127109527588e-01
2.033352106809616089e-01
2.028785347938537598e-01
1.971657872200012207e-01
1.862376630306243896e-01
1.747892349958419800e-01
1.684652417898178101e-01
1.692192405462265015e-01
1.736961305141448975e-01
1.758851706981658936e-01
1.718502491712570190e-01
1.628852486610412598e-01
1.541827470064163208e-01
1.507848501205444336e-01
1.534516811370849609e-01
1.579608619213104248e-01
1.587325781583786011e-01
1.537384241819381714e-01
1.464457213878631592e-01
1.430293023586273193e-01
1.472083777189254761e-01
1.569389849901199341e-01
1.656921803951263428e-01
