2.551562786102294922e-01
2.503798902034759521e-01
2.484756559133529663e-01
2.493558079004287720e-01
2.502009570598602295e-01
2.476018220186233521e-01
2.403034716844558716e-01
2.302149385213851929e-01
2.207613736391067505e-01
2.142363488674163818e-01
2.102092206478118896e-01
2.061681449413299561e-01
1.998022049665451050e-01
1.911386698484420776e-01
1.824084222316741943e-01
1.761495471000671387e-01
1.729907840490341187e-01
1.711667180061340332e-01
1.679131090641021729e-01
1.617636382579803467e-01
1.536985337734222412e-01
1.461813300848007202e-01
1.413747966289520264e-01
1.394633501768112183e-01
1.386124044656753540e-01
1.364926546812057495e-01
1.322696059942245483e-01
1.273814141750335693e-01
1.243989616632461548e-01
1.249590218067169189e-01
1.283184885978698730e-01
1.317685097455978394e-01
1.328381896018981934e-01
1.312638521194458008e-01
1.291140317916870117e-01
1.289213597774505615e-01
1.315557807683944702e-01
1.354684680700302124e-01
1.377706527709960938e-01
1.366483718156814575e-01
1.327621489763259888e-01
1.287404149770736694e-01
1.272509843111038208e-01
1.289951801300048828e-01
1.324834078550338745e-01
1.351898759603500366e-01
1.355244219303131104e-01
1.336380988359451294e-01
1.304995715618133545e-01
1.266602426767349243e-01
1.223012953996658325e-01
1.179587021470069885e-01
1.148461475968360901e-01
1.141157448291778564e-01
1.153911575675010681e-01
1.159192994236946106e-01
1.119044944643974304e-01
1.010001301765441895e-01
8.405422419309616089e-02
6.482207775115966797e-02
4.787725210189819336e-02
3.619150444865226746e-02
3.031475841999053955e-02
3.023312799632549286e-02
3.900663927197456360e-02
6.549702584743499756e-02
1.231210380792617798e-01
2.238439321517944336e-01
3.700495064258575439e-01
5.488159656524658203e-01
7.327538132667541504e-01
8.875558972358703613e-01
9.825707077980041504e-01
1.000000000000000000e+00
9.391718506813049316e-01
8.151921033859252930e-01
6.533220410346984863e-01
4.814349710941314697e-01
3.230268061161041260e-01
1.930444687604904175e-01
9.744112938642501831e-02
3.579011932015419006e-02
4.678407683968544006e-03
0.000000000000000000e+00
1.712499186396598816e-02
4.994676262140274048e-02
9.028762578964233398e-02
1.288732737302780151e-01
1.575637012720108032e-01
1.718049645423889160e-01
1.720503717660903931e-01
1.633725017309188843e-01
1.527919620275497437e-01
1.460163146257400513e-01
1.451275497674942017e-01
1.481935232877731323e-01
1.513489633798599243e-01
1.518492102622985840e-01
1.497776806354522705e-01
1.475616842508316040e-01
1.476767957210540771e-01
1.507008373737335205e-01
1.549226492643356323e-01
1.578456461429595947e-01
1.583239883184432983e-01
1.573988199234008789e-01
1.572480797767639160e-01
1.592687815427780151e-01
1.627986580133438110e-01
1.656816452741622925e-01
1.660870611667633057e-01
1.642798930406570435e-01
1.625741869211196899e-01
1.634605079889297485e-01
1.676491647958755493e-01
1.732824295759201050e-01
1.773816943168640137e-01
1.781787425279617310e-01
1.765598356723785400e-01
1.753281354904174805e-01
1.768623888492584229e-01
1.812568306922912598e-01
1.862532198429107666e-01
1.890842765569686890e-01
1.887467354536056519e-01
1.869236081838607788e-01
1.867226064205169678e-01
1.902574896812438965e-01
1.969346404075622559e-01
2.037961781024932861e-01
2.077535390853881836e-01
2.080249786376953125e-01
2.066535651683807373e-01
2.069232910871505737e-01
2.108544558286666870e-01
2.175052314996719360e-01
2.237458825111389160e-01
2.268811613321304321e-01
2.268470376729965210e-01
2.259990721940994263e-01
2.271542698144912720e-01
2.311614751815795898e-01
2.362294346094131470e-01
2.394989728927612305e-01
2.396948039531707764e-01
2.383289486169815063e-01
2.384220212697982788e-01
2.419700026512145996e-01
2.482651323080062866e-01
2.542760670185089111e-01
2.569704651832580566e-01
2.556673288345336914e-01
2.524769008159637451e-01
2.505357563495635986e-01
2.516906559467315674e-01
2.551696896553039551e-01
2.582984566688537598e-01
2.588400542736053467e-01
2.567469477653503418e-01
2.541507184505462646e-01
2.534061372280120850e-01
2.549318373203277588e-01
2.566020190715789795e-01
2.552187740802764893e-01
2.492566555738449097e-01
2.403316795825958252e-01
2.320307940244674683e-01
2.272342443466186523e-01
2.258529067039489746e-01
2.249546200037002563e-01
2.211150377988815308e-01
2.131852060556411743e-01
2.032360136508941650e-01
1.947810202836990356e-01
1.901702284812927246e-01
1.887753158807754517e-01
1.875671297311782837e-01
1.835653781890869141e-01
1.761159002780914307e-01
1.674174070358276367e-01
1.605887711048126221e-01
1.574059724807739258e-01
1.570860147476196289e-01
1.571216434240341187e-01
1.555668860673904419e-01
1.525819897651672363e-01
1.499825119972229004e-01
1.495261639356613159e-01
1.512487977743148804e-01
1.534238308668136597e-01
1.539222896099090576e-01
1.520093381404876709e-01
1.489897668361663818e-01
1.470975577831268311e-01
1.477463990449905396e-01
1.502561122179031372e-01
1.524362564086914062e-01
1.522910594940185547e-01
1.497090905904769897e-01
1.465942263603210449e-01
1.502241343259811401e-01
1.536691784858703613e-01
1.564494520425796509e-01
1.594392955303192139e-01
1.646598130464553833e-01
1.730079948902130127e-01
1.828319132328033447e-01
1.905454248189926147e-01
1.930812597274780273e-01
1.903285235166549683e-01
1.854503005743026733e-01
1.828329563140869141e-01
1.851794123649597168e-01
1.919552683830261230e-01
2.002388536930084229e-01
2.068543136119842529e-01
2.104794085025787354e-01
2.119603008031845093e-01
2.129989415407180786e-01
2.145705521106719971e-01
2.160574346780776978e-01
2.160360813140869141e-01
2.137493938207626343e-01
2.098740488290786743e-01
2.058076113462448120e-01
2.022247612476348877e-01
1.980613172054290771e-01
1.910278052091598511e-01
1.795871853828430176e-01
1.648201048374176025e-01
1.501820087432861328e-01
1.394193917512893677e-01
1.342375278472900391e-01
1.332978904247283936e-01
1.333852410316467285e-01
1.316987276077270508e-01
1.277806460857391357e-01
1.235527619719505310e-01
1.215733140707015991e-01
1.228919252753257751e-01
1.261150389909744263e-01
1.283419430255889893e-01
1.274442821741104126e-01
1.238679513335227966e-01
1.203706115484237671e-01
1.197940781712532043e-01
1.226925551891326904e-01
1.267418712377548218e-01
1.286001056432723999e-01
1.268499195575714111e-01
1.231252327561378479e-01
1.207174733281135559e-01
1.217300146818161011e-01
1.251305043697357178e-01
1.272169202566146851e-01
1.242011263966560364e-01
1.147418990731239319e-01
1.004487052559852600e-01
8.442540466785430908e-02
6.936285644769668579e-02
5.647388473153114319e-02
4.599031805992126465e-02
3.886628150939941406e-02
3.881688416004180908e-02
5.337284132838249207e-02
9.316208213567733765e-02
1.686478704214096069e-01
2.849122583866119385e-01
4.379299581050872803e-01
6.127329468727111816e-01
7.845628261566162109e-01
9.231532812118530273e-01
1.000000000000000000e+00
9.972366690635681152e-01
9.148314595222473145e-01
7.717796564102172852e-01
5.999336242675781250e-01
4.318017065525054932e-01
2.893534898757934570e-01
1.799429208040237427e-01
1.004518643021583557e-01
4.506766051054000854e-02
1.110825501382350922e-02
0.000000000000000000e+00
1.295666024088859558e-02
4.642951861023902893e-02
9.062705188989639282e-02
1.324788928031921387e-01
1.611621081829071045e-01
1.727582514286041260e-01
1.706939935684204102e-01
1.625538170337677002e-01
1.550332307815551758e-01
1.511410027742385864e-01
1.500781327486038208e-01
1.495817899703979492e-01
1.484254598617553711e-01
1.473487019538879395e-01
1.479505598545074463e-01
1.509175300598144531e-01
1.551157534122467041e-01
1.581989973783493042e-01
1.584692299365997314e-01
1.562847197055816650e-01
1.541156470775604248e-01
1.546621918678283691e-01
1.587790995836257935e-01
1.646379828453063965e-01
1.691356301307678223e-01
1.702676713466644287e-01
1.687321960926055908e-01
1.671534180641174316e-01
1.679722368717193604e-01
1.714621037244796753e-01
1.756628155708312988e-01
1.782872974872589111e-01
1.789173930883407593e-01
1.794314533472061157e-01
1.821525394916534424e-01
1.877949088811874390e-01
1.944688111543655396e-01
1.988931745290756226e-01
1.990530043840408325e-01
1.960101723670959473e-01
1.931309252977371216e-01
1.935518682003021240e-01
1.979362517595291138e-01
2.039672434329986572e-01
2.082258015871047974e-01
2.089705914258956909e-01
2.074987143278121948e-01
2.071155309677124023e-01
2.106079906225204468e-01
2.179483473300933838e-01
2.262668460607528687e-01
2.319011092185974121e-01
2.331582903861999512e-01
2.315953075885772705e-01
2.305591851472854614e-01
2.324721962213516235e-01
2.368169575929641724e-01
2.407137602567672729e-01
2.414565086364746094e-01
2.390975356101989746e-01
2.365557849407196045e-01
2.371389418840408325e-01
2.417818158864974976e-01
2.481128275394439697e-01
2.522360086441040039e-01
2.519353926181793213e-01
2.484886348247528076e-01
2.455604672431945801e-01
2.462211102247238159e-01
2.506729662418365479e-01
2.563305795192718506e-01
2.598139941692352295e-01
2.597952783107757568e-01
2.577455937862396240e-01
2.565030157566070557e-01
2.577709555625915527e-01
2.605088651180267334e-01
2.615535855293273926e-01
2.581066191196441650e-01
2.501201629638671875e-01
2.405709773302078247e-01
2.331858575344085693e-01
2.296798527240753174e-01
2.283872961997985840e-01
2.258436232805252075e-01
2.197909057140350342e-01
2.111498862504959106e-01
2.032083570957183838e-01
1.987332403659820557e-01
1.977816075086593628e-01
1.974824219942092896e-01
1.943483203649520874e-01
1.870154738426208496e-01
1.773339658975601196e-01
1.688701063394546509e-01
1.643326580524444580e-01
1.636980772018432617e-01
1.643779873847961426e-01
1.632348746061325073e-01
1.590546369552612305e-01
1.533647626638412476e-01
1.491154879331588745e-01
1.483232676982879639e-01
1.504294574260711670e-01
1.528642177581787109e-01
1.531361639499664307e-01
1.509759277105331421e-01
1.484930962324142456e-01
1.483255326747894287e-01
1.513967812061309814e-01
1.560544073581695557e-01
1.593046188354492188e-01
1.592122167348861694e-01
1.564823836088180542e-01
1.537440419197082520e-01
1.535647362470626831e-01
1.429823487997055054e-01
1.416604071855545044e-01
1.441341489553451538e-01
1.512490361928939819e-01
1.607855856418609619e-01
1.689184159040451050e-01
1.729912459850311279e-01
1.733087003231048584e-01
1.724449694156646729e-01
1.730873584747314453e-01
1.761802881956100464e-01
1.803297102451324463e-01
1.833060979843139648e-01
1.842299103736877441e-01
1.845796555280685425e-01
1.868125200271606445e-01
1.920893788337707520e-01
1.987179815769195557e-01
2.029831111431121826e-01
2.019987702369689941e-01
1.962343007326126099e-01
1.894390881061553955e-01
1.858105659484863281e-01
1.867158114910125732e-01
1.894967555999755859e-01
1.894498467445373535e-01
1.833055317401885986e-01
1.716858744621276855e-01
1.583668589591979980e-01
1.475673317909240723e-01
1.411567330360412598e-01
1.378607302904129028e-01
1.348601132631301880e-01
1.303787976503372192e-01
1.251165568828582764e-01
1.213301122188568115e-01
1.205817982554435730e-01
1.221169009804725647e-01
1.233281567692756653e-01
1.218241006135940552e-01
1.175714880228042603e-01
1.130070760846138000e-01
1.110484823584556580e-01
1.126978769898414612e-01
1.162663549184799194e-01
1.187699511647224426e-01
1.183716058731079102e-01
1.157480701804161072e-01
1.134445294737815857e-01
1.138250306248664856e-01
1.172133386135101318e-01
1.217208728194236755e-01
1.246979758143424988e-01
1.246674656867980957e-01
1.220679208636283875e-01
1.183500960469245911e-01
1.141556203365325928e-01
1.081834435462951660e-01
9.787669777870178223e-02
8.174151182174682617e-02
6.146637722849845886e-02
4.193046689033508301e-02
2.865903079509735107e-02
2.543637715280056000e-02
3.414734825491905212e-02
5.779448524117469788e-02
1.038024947047233582e-01
1.832533478736877441e-01
3.051029741764068604e-01
4.678190350532531738e-01
6.533041000366210938e-01
8.281442523002624512e-01
9.535731673240661621e-01
1.000000000000000000e+00
9.584920406341552734e-01
8.431224822998046875e-01
6.836451292037963867e-01
5.126934647560119629e-01
3.548732995986938477e-01
2.228984534740447998e-01
1.208810657262802124e-01
4.965557157993316650e-02
9.603681974112987518e-03
0.000000000000000000e+00
1.668821461498737335e-02
5.077244341373443604e-02
9.064611047506332397e-02
1.258486509323120117e-01
1.503254026174545288e-01
1.631058305501937866e-01
1.665696501731872559e-01
1.638512313365936279e-01
1.574204117059707642e-01
1.492462605237960815e-01
1.416608691215515137e-01
1.371001303195953369e-01
1.369089484214782715e-01
1.403116434812545776e-01
1.446619629859924316e-01
1.471243202686309814e-01
1.466298401355743408e-01
1.446277499198913574e-01
1.437544822692871094e-01
1.457576751708984375e-01
1.500983536243438721e-01
1.544149070978164673e-01
1.564089357852935791e-01
1.557529568672180176e-01
1.541811972856521606e-01
1.540435552597045898e-01
1.563710868358612061e-01
1.600636392831802368e-01
1.628999859094619751e-01
1.635541617870330811e-01
1.627435237169265747e-01
1.626530289649963379e-01
1.650648117065429688e-01
1.697546839714050293e-01
1.745535731315612793e-01
1.770856976509094238e-01
1.767166405916213989e-01
1.750427186489105225e-01
1.746117025613784790e-01
1.768953055143356323e-01
1.812085509300231934e-01
1.852663457393646240e-01
1.871121525764465332e-01
1.869150847196578979e-01
1.868550330400466919e-01
1.893272697925567627e-01
1.949717551469802856e-01
2.019408047199249268e-01
2.071819305419921875e-01
2.089124172925949097e-01
2.080941498279571533e-01
2.077132314443588257e-01
2.104065716266632080e-01
2.163735628128051758e-01
2.230675667524337769e-01
2.273146808147430420e-01
2.279755771160125732e-01
2.270306944847106934e-01
2.280362546443939209e-01
2.332551181316375732e-01
2.417321801185607910e-01
2.498156577348709106e-01
2.538390755653381348e-01
2.529429197311401367e-01
2.496415674686431885e-01
2.476251274347305298e-01
2.490875720977783203e-01
2.530338466167449951e-01
2.563089430332183838e-01
2.561812698841094971e-01
2.526340186595916748e-01
2.483182847499847412e-01
2.464852035045623779e-01
2.483813017606735229e-01
2.520898580551147461e-01
2.539737224578857422e-01
2.515024244785308838e-01
2.451471090316772461e-01
2.379506379365921021e-01
2.330608665943145752e-01
2.312213033437728882e-01
2.304363995790481567e-01
2.276402562856674194e-01
2.214618772268295288e-01
2.132041603326797485e-01
2.055240124464035034e-01
2.002656608819961548e-01
1.969985812902450562e-01
1.934447437524795532e-01
1.874901801347732544e-01
1.791114360094070435e-01
1.704630106687545776e-01
1.641633808612823486e-01
1.613208353519439697e-01
1.605441123247146606e-01
1.589809805154800415e-01
1.547404974699020386e-01
1.483882963657379150e-01
1.426062881946563721e-01
1.399620920419692993e-01
1.407041400671005249e-01
1.423824131488800049e-01
1.418767273426055908e-01
1.379712671041488647e-01
1.323852986097335815e-01
1.282282918691635132e-01
1.275322586297988892e-01
1.296747922897338867e-01
1.320682615041732788e-01
1.323971152305603027e-01
1.305118650197982788e-01
1.284529715776443481e-01
1.284886747598648071e-01
1.313243955373764038e-01
1.354387849569320679e-01
1.382487714290618896e-01
1.427826434373855591e-01
1.458199024200439453e-01
1.525493413209915161e-01
1.598280221223831177e-01
1.648560166358947754e-01
1.673057079315185547e-01
1.691470593214035034e-01
1.725641041994094849e-01
1.777992248535156250e-01
1.827816665172576904e-01
1.850238144397735596e-01
1.838814765214920044e-01
1.813579350709915161e-01
1.808567941188812256e-01
1.848596036434173584e-01
1.930632889270782471e-01
2.026230990886688232e-01
2.098079919815063477e-01
2.124288231134414673e-01
2.110803872346878052e-01
2.083288133144378662e-01
2.066878676414489746e-01
2.067799121141433716e-01
2.069869786500930786e-01
2.049193084239959717e-01
1.996082663536071777e-01
1.921854913234710693e-01
1.846316456794738770e-01
1.779732555150985718e-01
1.715374886989593506e-01
1.637956649065017700e-01
1.542589813470840454e-01
1.442604511976242065e-01
1.361546218395233154e-01
1.315489411354064941e-01
1.299223750829696655e-01
1.289269030094146729e-01
1.261634677648544312e-01
1.211533993482589722e-01
1.157364100217819214e-01
1.126602888107299805e-01
1.133259385824203491e-01
1.165470704436302185e-01
1.191824674606323242e-01
1.186037212610244751e-01
1.147980019450187683e-01
1.103717982769012451e-01
1.085740998387336731e-01
1.108151227235794067e-01
1.155477464199066162e-01
1.195406466722488403e-01
1.205810829997062683e-01
1.191222369670867920e-01
1.176037266850471497e-01
1.182022914290428162e-01
1.205151528120040894e-01
1.211278885602951050e-01
1.158875897526741028e-01
1.027987971901893616e-01
8.386754989624023438e-02
6.416574865579605103e-02
4.899318143725395203e-02
4.124954715371131897e-02
4.101268947124481201e-02
4.839471727609634399e-02
6.774746626615524292e-02
1.094977036118507385e-01
1.867554187774658203e-01
3.079943060874938965e-01
4.694787263870239258e-01
6.514515876770019531e-01
8.220571279525756836e-01
9.469146728515625000e-01
1.000000000000000000e+00
9.720272421836853027e-01
8.724275231361389160e-01
7.246434688568115234e-01
5.575554966926574707e-01
3.966288864612579346e-01
2.585482895374298096e-01
1.505298465490341187e-01
7.317721843719482422e-02
2.411738410592079163e-02
6.109246751293540001e-04
0.000000000000000000e+00
1.858405023813247681e-02
5.093536898493766785e-02
8.967113494873046875e-02
1.264740377664566040e-01
1.539958417415618896e-01
1.678460538387298584e-01
1.682278960943222046e-01
1.599863171577453613e-01
1.502876132726669312e-01
1.450457274913787842e-01
1.460371762514114380e-01
1.504728496074676514e-01
1.536429822444915771e-01
1.528848558664321899e-01
1.494069844484329224e-01
1.468015909194946289e-01
1.479095369577407837e-01
1.524264365434646606e-01
1.572462618350982666e-01
1.591197103261947632e-01
1.574365049600601196e-01
1.546724140644073486e-01
1.543439030647277832e-01
1.582469046115875244e-01
1.648925393819808960e-01
1.706695556640625000e-01
1.726132631301879883e-01
1.707956194877624512e-01
1.680971831083297729e-01
1.677797585725784302e-01
1.709526628255844116e-01
1.757760047912597656e-01
1.790008693933486938e-01
1.788571029901504517e-01
1.765245050191879272e-01
1.751762330532073975e-01
1.773581504821777344e-01
1.829780489206314087e-01
1.893974691629409790e-01
1.935617923736572266e-01
1.944543123245239258e-01
1.937992423772811890e-01
1.943377107381820679e-01
1.974606662988662720e-01
2.020036727190017700e-01
2.051716297864913940e-01
2.049369812011718750e-01
2.018458992242813110e-01
1.989861130714416504e-01
1.997869163751602173e-01
2.055193632841110229e-01
2.141399830579757690e-01
2.217611521482467651e-01
2.254945039749145508e-01
2.255515009164810181e-01
2.248442173004150391e-01
2.265734523534774780e-01
2.313284277915954590e-01
2.365913987159729004e-01
2.387472391128540039e-01
2.363708615303039551e-01
2.315189987421035767e-01
2.281536012887954712e-01
2.292009741067886353e-01
2.342802882194519043e-01
2.400740534067153931e-01
2.431998252868652344e-01
2.429291009902954102e-01
2.414385229349136353e-01
2.416528612375259399e-01
2.446541488170623779e-01
2.487471997737884521e-01
2.507102489471435547e-01
2.486013472080230713e-01
2.434079051017761230e-01
2.382578998804092407e-01
2.358289659023284912e-01
2.362235039472579956e-01
2.368755042552947998e-01
2.345936298370361328e-01
2.281533777713775635e-01
2.195643335580825806e-01
2.123600542545318604e-01
2.089183181524276733e-01
2.083639651536941528e-01
2.072833627462387085e-01
2.025782465934753418e-01
1.939626634120941162e-01
1.842259317636489868e-01
1.769124120473861694e-01
1.735342592000961304e-01
1.724571734666824341e-01
1.703994274139404297e-01
1.652986854314804077e-01
1.579512655735015869e-01
1.511089503765106201e-01
1.471801698207855225e-01
1.462878137826919556e-01
1.462997794151306152e-01
1.445113867521286011e-01
1.399437189102172852e-01
1.341742277145385742e-01
1.301261335611343384e-01
1.298068910837173462e-01
1.326203346252441406e-01
1.358433216810226440e-01
1.367285549640655518e-01
1.347722858190536499e-01
1.321485042572021484e-01
1.318976581096649170e-01
1.353515684604644775e-01
1.408764272928237915e-01
1.450582891702651978e-01
1.455701142549514771e-01
1.431045681238174438e-01
1.554262489080429077e-01
1.564820408821105957e-01
1.575917005538940430e-01
1.615807861089706421e-01
1.695514023303985596e-01
1.794580668210983276e-01
1.872730404138565063e-01
1.898963004350662231e-01
1.874315291643142700e-01
1.832726150751113892e-01
1.816363632678985596e-01
1.845999360084533691e-01
1.909154951572418213e-01
1.974571794271469116e-01
2.018016278743743896e-01
2.040347009897232056e-01
2.061924636363983154e-01
2.099283039569854736e-01
2.147943228483200073e-01
2.183628678321838379e-01
2.181998789310455322e-01
2.140135914087295532e-01
2.080227732658386230e-01
2.030437886714935303e-01
2.002142965793609619e-01
1.978301554918289185e-01
1.925881803035736084e-01
1.823866069316864014e-01
1.683448255062103271e-01
1.542718112468719482e-01
1.441307216882705688e-01
1.394638717174530029e-01
1.384237706661224365e-01
1.373763531446456909e-01
1.337186843156814575e-01
1.276915967464447021e-01
1.219448670744895935e-01
1.192243248224258423e-01
1.201100498437881470e-01
1.225929334759712219e-01
1.236592084169387817e-01
1.216934844851493835e-01
1.178716942667961121e-01
1.150525882840156555e-01
1.154467165470123291e-01
1.187436953186988831e-01
1.222919672727584839e-01
1.231679916381835938e-01
1.206774637103080750e-01
1.168546229600906372e-01
1.148320809006690979e-01
1.162809655070304871e-01
1.198749467730522156e-01
1.222800016403198242e-01
1.206580474972724915e-01
1.143942847847938538e-01
1.048995107412338257e-01
9.383374452590942383e-02
8.161407709121704102e-02
6.760014593601226807e-02
5.160507559776306152e-02
3.549358993768692017e-02
2.346989698708057404e-02
2.137326449155807495e-02
3.626964986324310303e-02
7.639538496732711792e-02
1.498741209506988525e-01
2.621080577373504639e-01
4.120956063270568848e-01
5.882443189620971680e-01
7.667252421379089355e-01
9.149339199066162109e-01
9.998918771743774414e-01
1.000000000000000000e+00
9.144945144653320312e-01
7.648776769638061523e-01
5.864534378051757812e-01
4.138327836990356445e-01
2.690719068050384521e-01
1.588066369295120239e-01
7.982675731182098389e-02
2.750266157090663910e-02
6.523521151393651962e-04
0.000000000000000000e+00
2.320210263133049011e-02
6.192047521471977234e-02
1.036148667335510254e-01
1.365806311368942261e-01
1.549482494592666626e-01
1.600266546010971069e-01
1.575962752103805542e-01
1.535689085721969604e-01
1.506374478340148926e-01
1.483314782381057739e-01
1.452982276678085327e-01
1.416425555944442749e-01
1.393791586160659790e-01
1.407945156097412109e-01
1.463510692119598389e-01
1.536762416362762451e-01
1.589159369468688965e-01
1.596203446388244629e-01
1.566339284181594849e-01
1.533318012952804565e-01
1.529715210199356079e-01
1.561555117368698120e-01
1.604868471622467041e-01
1.627893894910812378e-01
1.619058102369308472e-01
1.596318036317825317e-01
1.590290665626525879e-01
1.618632674217224121e-01
1.670713424682617188e-01
1.716684848070144653e-01
1.731354743242263794e-01
1.714908331632614136e-01
1.692268252372741699e-01
1.692833900451660156e-01
1.729052364826202393e-01
1.787180900573730469e-01
1.837876290082931519e-01
1.859161555767059326e-01
1.853789091110229492e-01
1.846254020929336548e-01
1.863510757684707642e-01
1.913851797580718994e-01
1.979931592941284180e-01
2.030534595251083374e-01
2.045444697141647339e-01
2.031050324440002441e-01
2.015954256057739258e-01
2.030330151319503784e-01
2.081039994955062866e-01
2.146209329366683960e-01
2.192082554101943970e-01
2.201482355594635010e-01
2.187655419111251831e-01
2.182045876979827881e-01
2.208001762628555298e-01
2.259677052497863770e-01
2.307185977697372437e-01
2.322986721992492676e-01
2.307187020778656006e-01
2.288276106119155884e-01
2.299302518367767334e-01
2.351664751768112183e-01
2.425151020288467407e-01
2.482529282569885254e-01
2.498888671398162842e-01
2.480606734752655029e-01
2.457579225301742554e-01
2.458436489105224609e-01
2.486729621887207031e-01
2.518416941165924072e-01
2.523364722728729248e-01
2.492103427648544312e-01
2.444860339164733887e-01
2.415127754211425781e-01
2.423154711723327637e-01
2.457640618085861206e-01
2.484373897314071655e-01
2.472583353519439697e-01
2.417352944612503052e-01
2.341240644454956055e-01
2.274950742721557617e-01
2.234465926885604858e-01
2.209810465574264526e-01
2.176742106676101685e-01
2.119849473237991333e-01
2.048406451940536499e-01
1.988089382648468018e-01
1.959304362535476685e-01
1.957501918077468872e-01
1.955295950174331665e-01
1.922247111797332764e-01
1.850131303071975708e-01
1.759171187877655029e-01
1.681183874607086182e-01
1.636684685945510864e-01
1.620091795921325684e-01
1.606278270483016968e-01
1.572270393371582031e-01
1.516370326280593872e-01
1.459440439939498901e-01
1.428215354681015015e-01
1.434360742568969727e-01
1.464560180902481079e-01
1.489001363515853882e-01
1.485293656587600708e-01
1.456965953111648560e-01
1.430753916501998901e-01
1.434460878372192383e-01
1.473852843046188354e-01
1.527048498392105103e-01
1.561187505722045898e-01
1.560037136077880859e-01
1.537078469991683960e-01
1.520943939685821533e-01
1.531040221452713013e-01
1.559811979532241821e-01
1.089229136705398560e-01
1.057867407798767090e-01
1.030383780598640442e-01
1.069164350628852844e-01
1.183482855558395386e-01
1.321069598197937012e-01
1.403014808893203735e-01
1.390874683856964111e-01
1.314325183629989624e-01
1.255479902029037476e-01
1.278748214244842529e-01
1.381601095199584961e-01
1.497942954301834106e-01
1.551898568868637085e-01
1.515815705060958862e-01
1.438085883855819702e-01
1.402846127748489380e-01
1.459668129682540894e-01
1.583934724330902100e-01
1.698084622621536255e-01
1.734167337417602539e-01
1.685101538896560669e-01
1.611924171447753906e-01
1.585958003997802734e-01
1.627436429262161255e-01
1.687293499708175659e-01
1.686450392007827759e-01
1.578707695007324219e-01
1.395090073347091675e-01
1.223780959844589233e-01
1.142847537994384766e-01
1.163249462842941284e-01
1.220745965838432312e-01
1.226478740572929382e-01
1.137957796454429626e-01
9.905914962291717529e-02
8.718891441822052002e-02
8.481149375438690186e-02
9.150536358356475830e-02
1.005935147404670715e-01
1.043704077601432800e-01
1.004080399870872498e-01
9.325891733169555664e-02
9.008902311325073242e-02
9.472583979368209839e-02
1.041343510150909424e-01
1.109631061553955078e-01
1.096479371190071106e-01
1.008801534771919250e-01
9.185944497585296631e-02
9.008902311325073242e-02
9.760908782482147217e-02
1.090409383177757263e-01
1.154313087463378906e-01
1.109462454915046692e-01
9.713698178529739380e-02
8.142240345478057861e-02
7.007486373186111450e-02
6.334727257490158081e-02
5.597895756363868713e-02
4.230457916855812073e-02
2.289741672575473785e-02
5.277534015476703644e-03
0.000000000000000000e+00
1.527618523687124252e-02
5.559115111827850342e-02
1.239630430936813354e-01
2.247420251369476318e-01
3.609968423843383789e-01
5.287144780158996582e-01
7.098199129104614258e-01
8.721420168876647949e-01
9.782322645187377930e-01
1.000000000000000000e+00
9.318473339080810547e-01
7.941930294036865234e-01
6.247049570083618164e-01
4.612194001674652100e-01
3.267012834548950195e-01
2.248769104480743408e-01
1.476023495197296143e-01
8.730693906545639038e-02
4.447966441512107849e-02
2.554461546242237091e-02
3.458218276500701904e-02
6.579213589429855347e-02
1.044884324073791504e-01
1.349059194326400757e-01
1.490018218755722046e-01
1.498111486434936523e-01
1.460005342960357666e-01
1.443987339735031128e-01
1.452755182981491089e-01
1.437411457300186157e-01
1.357826888561248779e-01
1.236258149147033691e-01
1.141498610377311707e-01
1.135765835642814636e-01
1.219902858138084412e-01
1.328994333744049072e-01
1.382275521755218506e-01
1.347878873348236084e-01
1.268968731164932251e-01
1.229007914662361145e-01
1.280097067356109619e-01
1.402508914470672607e-01
1.515984386205673218e-01
1.547851860523223877e-01
1.487826257944107056e-01
1.401834487915039062e-01
1.376542747020721436e-01
1.448202580213546753e-01
1.571288853883743286e-01
1.655594557523727417e-01
1.637215912342071533e-01
1.534868776798248291e-01
1.430498361587524414e-01
1.409590542316436768e-01
1.490186750888824463e-01
1.615802198648452759e-01
1.702131181955337524e-01
1.702637076377868652e-01
1.642948687076568604e-01
1.594894379377365112e-01
1.615802198648452759e-01
1.703311502933502197e-01
1.798576861619949341e-01
1.834996938705444336e-01
1.795036047697067261e-01
1.724050790071487427e-01
1.694881021976470947e-01
1.743946820497512817e-01
1.845956742763519287e-01
1.933634579181671143e-01
1.952181756496429443e-01
1.907668411731719971e-01
1.859614253044128418e-01
1.873440295457839966e-01
1.965670734643936157e-01
2.091286182403564453e-01
2.179132699966430664e-01
2.182842046022415161e-01
2.123322337865829468e-01
2.070884257555007935e-01
2.087745368480682373e-01
2.175254672765731812e-01
2.276758551597595215e-01
2.321272045373916626e-01
2.285863608121871948e-01
2.217070162296295166e-01
2.193633168935775757e-01
2.263438254594802856e-01
2.397484332323074341e-01
2.517704069614410400e-01
2.552438080310821533e-01
2.493086904287338257e-01
2.400350719690322876e-01
2.356343120336532593e-01
2.393606305122375488e-01
2.474876940250396729e-01
2.521919608116149902e-01
2.481284141540527344e-01
2.371180951595306396e-01
2.268833816051483154e-01
2.242867797613143921e-01
2.303399145603179932e-01
2.385007143020629883e-01
2.405240386724472046e-01
2.321103364229202271e-01
2.164800763130187988e-01
2.015916854143142700e-01
1.936838179826736450e-01
1.927395910024642944e-01
1.928913444280624390e-01
1.874620616436004639e-01
1.750016808509826660e-01
1.608720570802688599e-01
1.528461575508117676e-01
1.547851860523223877e-01
1.627942323684692383e-01
1.682909578084945679e-01
1.643623113632202148e-01
1.515647172927856445e-01
1.375531107187271118e-01
1.306400448083877563e-01
1.328825801610946655e-01
1.393235325813293457e-01
1.423753947019577026e-01
1.382106989622116089e-01
1.299993246793746948e-01
1.247386559844017029e-01
1.269474625587463379e-01
1.347035765647888184e-01
1.414986103773117065e-01
1.414480358362197876e-01
1.341302990913391113e-01
1.251264512538909912e-01
1.217205077409744263e-01
1.273689866065979004e-01
1.384636163711547852e-01
1.465795338153839111e-01
1.386668384075164795e-01
1.279165893793106079e-01
1.225657910108566284e-01
1.262464970350265503e-01
1.356347203254699707e-01
1.432879865169525146e-01
1.445851475000381470e-01
1.411476731300354004e-01
1.397369951009750366e-01
1.461417526006698608e-01
1.596646904945373535e-01
1.732686907052993774e-01
1.791059225797653198e-01
1.741767078638076782e-01
1.639615446329116821e-01
1.573784351348876953e-01
1.608483493328094482e-01
1.730416864156723022e-01
1.862403303384780884e-01
1.923370063304901123e-01
1.886238753795623779e-01
1.799815148115158081e-01
1.743226349353790283e-01
1.761224567890167236e-01
1.829649955034255981e-01
1.873267143964767456e-01
1.829325705766677856e-01
1.696204245090484619e-01
1.536490917205810547e-01
1.425258964300155640e-01
1.389749199151992798e-01
1.395910680294036865e-01
1.379047483205795288e-01
1.304622739553451538e-01
1.198579594492912292e-01
1.129019185900688171e-01
1.144585162401199341e-01
1.229873672127723694e-01
1.316459327936172485e-01
1.331863254308700562e-01
1.257600635290145874e-01
1.146693006157875061e-01
1.079889088869094849e-01
1.104210913181304932e-01
1.190148070454597473e-01
1.260681301355361938e-01
1.251114755868911743e-01
1.162745431065559387e-01
1.065458133816719055e-01
1.037731245160102844e-01
1.102102994918823242e-01
1.207173317670822144e-01
1.266518533229827881e-01
1.229711547493934631e-01
1.120749786496162415e-01
1.009031534194946289e-01
9.461190551519393921e-02
9.174192696809768677e-02
8.527232706546783447e-02
6.891184300184249878e-02
4.332527890801429749e-02
1.653884164988994598e-02
0.000000000000000000e+00
2.107891719788312912e-03
2.618649974465370178e-02
7.387349754571914673e-02
1.492549479007720947e-01
2.588490843772888184e-01
4.073257446289062500e-01
5.864154696464538574e-01
7.710829973220825195e-01
9.223484992980957031e-01
1.000000000000000000e+00
9.811262488365173340e-01
8.715158700942993164e-01
7.032088637351989746e-01
5.187521576881408691e-01
3.523097634315490723e-01
2.197882384061813354e-01
1.229711547493934631e-01
5.929661169648170471e-02
2.845653705298900604e-02
3.040228225290775299e-02
5.885881930589675903e-02
9.860068559646606445e-02
1.332998275756835938e-01
1.529194265604019165e-01
1.586593836545944214e-01
1.583513021469116211e-01
1.587242335081100464e-01
1.605402678251266479e-01
1.597133278846740723e-01
1.526113599538803101e-01
1.408720165491104126e-01
1.308352053165435791e-01
1.286786794662475586e-01
1.352780014276504517e-01
1.452985852956771851e-01
1.515736281871795654e-01
1.503899544477462769e-01
1.444067955017089844e-01
1.401910036802291870e-01
1.427691280841827393e-01
1.510223299264907837e-01
1.590485274791717529e-01
1.606861948966979980e-01
1.550111025571823120e-01
1.471632570028305054e-01
1.444392204284667969e-01
1.502116024494171143e-01
1.607672721147537231e-01
1.682421863079071045e-01
1.668477356433868408e-01
1.577027291059494019e-01
1.483307182788848877e-01
1.470497697591781616e-01
1.559029072523117065e-01
1.692636907100677490e-01
1.781330555677413940e-01
1.772899031639099121e-01
1.693771928548812866e-01
1.629886627197265625e-01
1.651776283979415894e-01
1.759765148162841797e-01
1.884130835533142090e-01
1.939908862113952637e-01
1.896291673183441162e-01
1.802409440279006958e-01
1.742739975452423096e-01
1.772088259458541870e-01
1.875212788581848145e-01
1.983850300312042236e-01
2.028764635324478149e-01
1.999091953039169312e-01
1.943151801824569702e-01
1.929207295179367065e-01
1.985958218574523926e-01
2.083083391189575195e-01
2.158643156290054321e-01
2.169993370771408081e-01
2.130916267633438110e-01
2.104162275791168213e-01
2.145995795726776123e-01
2.255606204271316528e-01
2.370080947875976562e-01
2.414833009243011475e-01
2.359865754842758179e-01
2.251714617013931274e-01
2.176479101181030273e-01
2.196423113346099854e-01
2.301169037818908691e-01
2.419535219669342041e-01
2.475475519895553589e-01
2.448235005140304565e-01
2.383863329887390137e-01
2.353379875421524048e-01
2.388727664947509766e-01
2.463801056146621704e-01
2.514876723289489746e-01
2.493473589420318604e-01
2.410617321729660034e-01
2.327274531126022339e-01
2.306195646524429321e-01
2.355163544416427612e-01
2.422291785478591919e-01
2.429588288068771362e-01
2.339921891689300537e-01
2.187829315662384033e-01
2.055356502532958984e-01
2.013360857963562012e-01
2.056977897882461548e-01
2.110972404479980469e-01
2.090055644512176514e-01
1.964230686426162720e-01
1.784735620021820068e-01
1.646263301372528076e-01
1.604916304349899292e-01
1.639453172683715820e-01
1.669612377882003784e-01
1.621455103158950806e-01
1.488009393215179443e-01
1.336565464735031128e-01
1.250628381967544556e-01
1.263924241065979004e-01
1.333484649658203125e-01
1.376291066408157349e-01
1.339808404445648193e-01
1.243169605731964111e-01
1.159664690494537354e-01
1.155286729335784912e-01
1.232792288064956665e-01
1.330728232860565186e-01
1.373858898878097534e-01
1.337213963270187378e-01
1.259384155273437500e-01
1.212361976504325867e-01
1.239926740527153015e-01
1.322296559810638428e-01
1.395586431026458740e-01
1.138189956545829773e-01
1.049433574080467224e-01
9.659465402364730835e-02
9.638058394193649292e-02
1.063595041632652283e-01
1.212455555796623230e-01
1.325582861900329590e-01
1.352259218692779541e-01
1.316526085138320923e-01
1.290837824344635010e-01
1.333981007337570190e-01
1.440027654170989990e-01
1.544427573680877686e-01
1.574891358613967896e-01
1.517421901226043701e-01
1.427018791437149048e-01
1.387992352247238159e-01
1.444473713636398315e-01
1.566328555345535278e-01
1.671716570854187012e-01
1.689830124378204346e-01
1.617046445608139038e-01
1.523844003677368164e-01
1.492886245250701904e-01
1.556448489427566528e-01
1.664965152740478516e-01
1.725398451089859009e-01
1.670399159193038940e-01
1.515281200408935547e-01
1.342049837112426758e-01
1.235673800110816956e-01
1.215254887938499451e-01
1.229416429996490479e-01
1.204386800527572632e-01
1.112501621246337891e-01
9.973981976509094238e-02
9.320247918367385864e-02
9.559017419815063477e-02
1.041529476642608643e-01
1.117441728711128235e-01
1.127815842628479004e-01
1.074627861380577087e-01
1.015676483511924744e-01
1.010901033878326416e-01
1.072322502732276917e-01
1.152186766266822815e-01
1.183967888355255127e-01
1.133908554911613464e-01
1.033954694867134094e-01
9.590304642915725708e-02
9.666051715612411499e-02
1.052232906222343445e-01
1.152022108435630798e-01
1.189072579145431519e-01
1.128309816122055054e-01
1.003820300102233887e-01
8.842708170413970947e-02
8.147806674242019653e-02
7.788828760385513306e-02
7.143327593803405762e-02
5.669542774558067322e-02
3.444869071245193481e-02
1.230075117200613022e-02
0.000000000000000000e+00
4.314319696277379990e-03
2.774667367339134216e-02
7.275062799453735352e-02
1.454518437385559082e-01
2.547424435615539551e-01
4.050849676132202148e-01
5.868133306503295898e-01
7.719832658767700195e-01
9.216341972351074219e-01
1.000000000000000000e+00
9.900045990943908691e-01
8.995521068572998047e-01
7.563068270683288574e-01
5.937129259109497070e-01
4.377881586551666260e-01
3.012778162956237793e-01
1.872941702604293823e-01
9.725332260131835938e-02
3.551903739571571350e-02
7.640627212822437286e-03
1.402977202087640762e-02
4.561322554945945740e-02
8.613818883895874023e-02
1.196153312921524048e-01
1.384699046611785889e-01
1.454683244228363037e-01
1.482676863670349121e-01
1.518409997224807739e-01
1.549202948808670044e-01
1.524337977170944214e-01
1.417962014675140381e-01
1.269101500511169434e-01
1.162396222352981567e-01
1.161572933197021484e-01
1.257245391607284546e-01
1.375971585512161255e-01
1.432288289070129395e-01
1.395237743854522705e-01
1.309445351362228394e-01
1.258068829774856567e-01
1.293307840824127197e-01
1.395731717348098755e-01
1.491898298263549805e-01
1.514293253421783447e-01
1.458964496850967407e-01
1.389145106077194214e-01
1.380088329315185547e-01
1.457976549863815308e-01
1.575879305601119995e-01
1.652285605669021606e-01
1.636642068624496460e-01
1.550685018301010132e-01
1.473620086908340454e-01
1.475431472063064575e-01
1.562870442867279053e-01
1.672704517841339111e-01
1.726880520582199097e-01
1.691970825195312500e-01
1.608648449182510376e-01
1.557107120752334595e-01
1.590699553489685059e-01
1.692629456520080566e-01
1.791595369577407837e-01
1.821400374174118042e-01
1.773811131715774536e-01
1.709096282720565796e-01
1.703497618436813354e-01
1.787478625774383545e-01
1.916414201259613037e-01
2.011098712682723999e-01
2.014885991811752319e-01
1.946877837181091309e-01
1.882163137197494507e-01
1.888420432806015015e-01
1.975200921297073364e-01
2.086352258920669556e-01
2.145962268114089966e-01
2.121756076812744141e-01
2.052430510520935059e-01
2.014721333980560303e-01
2.064615935087203979e-01
2.188117504119873047e-01
2.313595116138458252e-01
2.366947680711746216e-01
2.326603829860687256e-01
2.243610918521881104e-01
2.197997570037841797e-01
2.232742756605148315e-01
2.320346534252166748e-01
2.389177978038787842e-01
2.382920533418655396e-01
2.305032312870025635e-01
2.221051305532455444e-01
2.200138270854949951e-01
2.266005724668502808e-01
2.373205125331878662e-01
2.445659339427947998e-01
2.436437904834747314e-01
2.364313006401062012e-01
2.297786921262741089e-01
2.294493466615676880e-01
2.351633459329605103e-01
2.406138777732849121e-01
2.386872619390487671e-01
2.273415923118591309e-01
2.120438665151596069e-01
2.015050649642944336e-01
2.002206593751907349e-01
2.050948441028594971e-01
2.081247568130493164e-01
2.027565538883209229e-01
1.895336508750915527e-01
1.756191551685333252e-01
1.689500659704208374e-01
1.715353727340698242e-01
1.780233234167098999e-01
1.801969408988952637e-01
1.736266613006591797e-01
1.610953807830810547e-01
1.499473005533218384e-01
1.460940539836883545e-01
1.492392271757125854e-01
1.532736122608184814e-01
1.512646526098251343e-01
1.415327340364456177e-01
1.288697123527526855e-01
1.214102208614349365e-01
1.234521120786666870e-01
1.321466267108917236e-01
1.394908428192138672e-01
1.386345624923706055e-01
1.294295936822891235e-01
1.184955835342407227e-01
1.142142042517662048e-01
1.192530617117881775e-01
1.291496455669403076e-01
9.960369765758514404e-02
1.116799637675285339e-01
1.227357015013694763e-01
1.247257292270660400e-01
1.166975647211074829e-01
1.057438775897026062e-01
1.018658652901649475e-01
1.096048876643180847e-01
1.248958185315132141e-01
1.382647603750228882e-01
1.423638910055160522e-01
1.375503838062286377e-01
1.312741339206695557e-01
1.311720758676528931e-01
1.392002403736114502e-01
1.505451351404190063e-01
1.576378196477890015e-01
1.565322428941726685e-01
1.501709371805191040e-01
1.457656472921371460e-01
1.485891193151473999e-01
1.579269617795944214e-01
1.677920818328857422e-01
1.710577756166458130e-01
1.655129045248031616e-01
1.549334079027175903e-01
1.460377871990203857e-01
1.427380740642547607e-01
1.430612504482269287e-01
1.409181356430053711e-01
1.314442157745361328e-01
1.156940460205078125e-01
1.002500280737876892e-01
9.254503250122070312e-02
9.473916888236999512e-02
1.020019426941871643e-01
1.061180755496025085e-01
1.021720245480537415e-01
9.244297444820404053e-02
8.410865068435668945e-02
8.342830091714859009e-02
9.002772718667984009e-02
9.751161187887191772e-02
9.866821020841598511e-02
9.183066338300704956e-02
8.227170258760452271e-02
7.807052135467529297e-02
8.330924063920974731e-02
9.451805800199508667e-02
1.035667508840560913e-01
1.037878692150115967e-01
9.543652832508087158e-02
8.545234799385070801e-02
8.174442499876022339e-02
8.637082576751708984e-02
9.376966953277587891e-02
9.456907957792282104e-02
8.247580379247665405e-02
5.949687957763671875e-02
3.415372595191001892e-02
1.556307729333639145e-02
6.905584130436182022e-03
4.133145324885845184e-03
1.615838613361120224e-03
0.000000000000000000e+00
1.064752601087093353e-02
5.225111916661262512e-02
1.410031765699386597e-01
2.809518277645111084e-01
4.599356949329376221e-01
6.517442464828491211e-01
8.240096569061279297e-01
9.470855593681335449e-01
1.000000000000000000e+00
9.748949408531188965e-01
8.779786825180053711e-01
7.285050749778747559e-01
5.540455579757690430e-01
3.833109438419342041e-01
2.389059960842132568e-01
1.320735514163970947e-01
6.277958303689956665e-02
2.377834171056747437e-02
6.888575386255979538e-03
7.313795853406190872e-03
2.384637668728828430e-02
5.459833517670631409e-02
9.378667175769805908e-02
1.308148950338363647e-01
1.548143476247787476e-01
1.598999947309494019e-01
1.489803194999694824e-01
1.321245729923248291e-01
1.202694177627563477e-01
1.184834912419319153e-01
1.237562298774719238e-01
1.280084401369094849e-01
1.251339465379714966e-01
1.158981546759605408e-01
1.071726232767105103e-01
1.063221842050552368e-01
1.146224886178970337e-01
1.266817450523376465e-01
1.342506706714630127e-01
1.327879130840301514e-01
1.250318884849548340e-01
1.188066601753234863e-01
1.204565167427062988e-01
1.296072602272033691e-01
1.397615373134613037e-01
1.434694677591323853e-01
1.382987797260284424e-01
1.294371783733367920e-01
1.253380477428436279e-01
1.306107938289642334e-01
1.424829512834548950e-01
1.526542305946350098e-01
1.543721258640289307e-01
1.478577405214309692e-01
1.402207762002944946e-01
1.394723802804946899e-01
1.475175619125366211e-01
1.590665578842163086e-01
1.659721434116363525e-01
1.636419296264648438e-01
1.553416252136230469e-01
1.493034958839416504e-01
1.518378108739852905e-01
1.622472107410430908e-01
1.735240519046783447e-01
1.781164407730102539e-01
1.738132089376449585e-01
1.659041047096252441e-01
1.625193506479263306e-01
1.682173013687133789e-01
1.797833144664764404e-01
1.895803958177566528e-01
1.910091340541839600e-01
1.843416690826416016e-01
1.769088208675384521e-01
1.769938617944717407e-01
1.873182207345962524e-01
2.030003517866134644e-01
2.150936275720596313e-01
2.172877788543701172e-01
2.104842364788055420e-01
2.020138502120971680e-01
1.994625180959701538e-01
2.053475826978683472e-01
2.149065434932708740e-01
2.208426147699356079e-01
2.191927582025527954e-01
2.128654718399047852e-01
2.093956768512725830e-01
2.142261862754821777e-01
2.259962856769561768e-01
2.374262213706970215e-01
2.409980744123458862e-01
2.353001236915588379e-01
2.259282618761062622e-01
2.204684168100357056e-01
2.224584519863128662e-01
2.282244414091110229e-01
2.305376529693603516e-01
2.249247431755065918e-01
2.134607881307601929e-01
2.034595906734466553e-01
2.013164758682250977e-01
2.068783640861511230e-01
2.136308699846267700e-01
2.134777903556823730e-01
2.033235281705856323e-01
1.870801001787185669e-01
1.730818301439285278e-01
1.671627610921859741e-01
1.685404777526855469e-01
1.708366572856903076e-01
1.669076234102249146e-01
1.548143476247787476e-01
1.393193006515502930e-01
1.277363002300262451e-01
1.239603385329246521e-01
1.248958185315132141e-01
1.241814494132995605e-01
1.185005009174346924e-01
1.103872880339622498e-01
1.061010658740997314e-01
1.088905110955238342e-01
1.153708770871162415e-01
1.179392114281654358e-01
1.119010746479034424e-01
1.004881560802459717e-01
9.230690449476242065e-02
9.390573948621749878e-02
1.042811200022697449e-01
1.154219061136245728e-01
1.186705902218818665e-01
1.116119250655174255e-01
1.000459268689155579e-01
9.331043064594268799e-02
1.213156282901763916e-01
1.135178357362747192e-01
1.060699447989463806e-01
1.065198183059692383e-01
1.163836941123008728e-01
1.297465711832046509e-01
1.380442231893539429e-01
1.372944265604019165e-01
1.310462057590484619e-01
1.275638639926910400e-01
1.324458122253417969e-01
1.438425779342651367e-01
1.540730148553848267e-01
1.557725369930267334e-01
1.489577889442443848e-01
1.410433650016784668e-01
1.404435336589813232e-01
1.501241326332092285e-01
1.645367145538330078e-01
1.744339168071746826e-01
1.734508574008941650e-01
1.632704138755798340e-01
1.522568613290786743e-01
1.487411856651306152e-01
1.545062214136123657e-01
1.636203080415725708e-01
1.669193655252456665e-01
1.591882258653640747e-01
1.426595747470855713e-01
1.256810575723648071e-01
1.155172735452651978e-01
1.135011762380599976e-01
1.146675124764442444e-01
1.119016259908676147e-01
1.029541641473770142e-01
9.197393804788589478e-02
8.614225685596466064e-02
8.930803090333938599e-02
9.848876297473907471e-02
1.060866117477416992e-01
1.059199869632720947e-01
9.845543652772903442e-02
9.039105474948883057e-02
8.892480283975601196e-02
9.558958560228347778e-02
1.049202755093574524e-01
1.091190800070762634e-01
1.045703738927841187e-01
9.450655430555343628e-02
8.674208819866180420e-02
8.694203197956085205e-02
9.453988075256347656e-02
1.033373847603797913e-01
1.065198183059692383e-01
1.019544452428817749e-01
9.344018995761871338e-02
8.694203197956085205e-02
8.495926111936569214e-02
8.412616699934005737e-02
7.739473879337310791e-02
6.026625633239746094e-02
3.543995693325996399e-02
1.202992442995309830e-02
0.000000000000000000e+00
4.415415693074464798e-03
2.480963803827762604e-02
6.081610172986984253e-02
1.181665211915969849e-01
2.084409445524215698e-01
3.416198790073394775e-01
5.145041942596435547e-01
7.039005756378173828e-01
8.717363476753234863e-01
9.785894155502319336e-01
1.000000000000000000e+00
9.362680315971374512e-01
8.095872998237609863e-01
6.522318720817565918e-01
4.925437867641448975e-01
3.474015593528747559e-01
2.230368107557296753e-01
1.221154034137725830e-01
4.898612201213836670e-02
8.730859495699405670e-03
2.582601504400372505e-03
2.346001937985420227e-02
5.775030329823493958e-02
9.114084392786026001e-02
1.156005784869194031e-01
1.309795528650283813e-01
1.410933583974838257e-01
1.481246948242187500e-01
1.506573110818862915e-01
1.458086818456649780e-01
1.334121972322463989e-01
1.184997558593750000e-01
1.089857891201972961e-01
1.097688972949981689e-01
1.190162822604179382e-01
1.296632587909698486e-01
1.340620219707489014e-01
1.303963810205459595e-01
1.233150586485862732e-01
1.203658953309059143e-01
1.252645105123519897e-01
1.347784847021102905e-01
1.417098492383956909e-01
1.406768113374710083e-01
1.332289129495620728e-01
1.264808326959609985e-01
1.271306425333023071e-01
1.354949474334716797e-01
1.453921347856521606e-01
1.488078385591506958e-01
1.429428309202194214e-01
1.327457278966903687e-01
1.269473582506179810e-01
1.309462338685989380e-01
1.424929648637771606e-01
1.536564677953720093e-01
1.574054062366485596e-01
1.528066992759704590e-01
1.456753909587860107e-01
1.434593498706817627e-01
1.491910666227340698e-01
1.593048572540283203e-01
1.664528399705886841e-01
1.659696400165557861e-01
1.592382192611694336e-01
1.531066149473190308e-01
1.543062776327133179e-01
1.636369675397872925e-01
1.757502108812332153e-01
1.827482283115386963e-01
1.809820532798767090e-01
1.734841763973236084e-01
1.682689934968948364e-01
1.712848097085952759e-01
1.820984035730361938e-01
1.942616254091262817e-01
2.002932429313659668e-01
1.974607259035110474e-01
1.897962242364883423e-01
1.847476512193679810e-01
1.873469203710556030e-01
1.960777789354324341e-01
2.045420408248901367e-01
2.067247629165649414e-01
2.020094245672225952e-01
1.957445442676544189e-01
1.944948881864547729e-01
2.005764991044998169e-01
2.100238204002380371e-01
2.158888280391693115e-01
2.139893770217895508e-01
2.070080190896987915e-01
2.020094245672225952e-01
2.047919780015945435e-01
2.148557901382446289e-01
2.257526963949203491e-01
2.299681752920150757e-01
2.244364023208618164e-01
2.138394117355346680e-01
2.064415067434310913e-01
2.076744884252548218e-01
2.158221900463104248e-01
2.235866487026214600e-01
2.237366139888763428e-01
2.148724496364593506e-01
2.026592493057250977e-01
1.948781162500381470e-01
1.949614286422729492e-01
1.993268579244613647e-01
2.006264925003051758e-01
1.940950006246566772e-01
1.812819689512252808e-01
1.687022000551223755e-01
1.620707511901855469e-01
1.616708636283874512e-01
1.622040420770645142e-01
1.576553285121917725e-01
1.463585346937179565e-01
1.326624155044555664e-01
1.236483007669448853e-01
1.230484694242477417e-01
1.286635398864746094e-01
1.335454881191253662e-01
1.314460933208465576e-01
1.219987645745277405e-01
1.110185459256172180e-01
1.058200150728225708e-01
1.094189956784248352e-01
1.180332228541374207e-01
1.242148056626319885e-01
1.227152273058891296e-01
1.148674562573432922e-01
1.075695231556892395e-01
1.075361967086791992e-01
1.153173297643661499e-01
1.254311352968215942e-01
