1.018974259495735168e-01
9.714951366186141968e-02
1.029235273599624634e-01
1.142106801271438599e-01
1.222803890705108643e-01
1.220542937517166138e-01
1.162802800536155701e-01
1.129932701587677002e-01
1.188020631670951843e-01
1.326979547739028931e-01
1.472025662660598755e-01
1.538635492324829102e-01
1.500547826290130615e-01
1.410981118679046631e-01
1.362284570932388306e-01
1.405937522649765015e-01
1.520200371742248535e-01
1.628549993038177490e-01
1.666115969419479370e-01
1.630463153123855591e-01
1.583679765462875366e-01
1.596375554800033569e-01
1.682811826467514038e-01
1.789596378803253174e-01
1.838118880987167358e-01
1.786813735961914062e-01
1.668376773595809937e-01
1.563505381345748901e-01
1.535852849483489990e-01
1.579157859086990356e-01
1.622289121150970459e-01
1.583679765462875366e-01
1.436720639467239380e-01
1.234804093837738037e-01
1.074627414345741272e-01
1.019843816757202148e-01
1.059322804212570190e-01
1.114628091454505920e-01
1.109932363033294678e-01
1.026800498366355896e-01
9.200160205364227295e-02
8.699281513690948486e-02
9.085375070571899414e-02
9.968869388103485107e-02
1.052887886762619019e-01
1.019843816757202148e-01
9.132333099842071533e-02
8.128836750984191895e-02
7.961877435445785522e-02
8.779282867908477783e-02
9.956695139408111572e-02
1.062105447053909302e-01
1.030800566077232361e-01
9.367119520902633667e-02
8.621019124984741211e-02
8.687107264995574951e-02
9.339293092489242554e-02
9.692342579364776611e-02
8.829718828201293945e-02
6.535765528678894043e-02
3.563540056347846985e-02
1.114801969379186630e-02
0.000000000000000000e+00
1.895685098133981228e-03
1.142628584057092667e-02
2.727003954350948334e-02
5.897494032979011536e-02
1.249065175652503967e-01
2.413781136274337769e-01
4.091549515724182129e-01
6.067583560943603516e-01
7.960486412048339844e-01
9.364684820175170898e-01
1.000000000000000000e+00
9.795300960540771484e-01
8.868328332901000977e-01
7.448999285697937012e-01
5.792970061302185059e-01
4.123028218746185303e-01
2.613610625267028809e-01
1.397415548563003540e-01
5.608793348073959351e-02
1.231325790286064148e-02
2.921789884567260742e-03
1.662637665867805481e-02
4.114854335784912109e-02
6.742726266384124756e-02
9.255813062191009521e-02
1.166976839303970337e-01
1.390980780124664307e-01
1.553592234849929810e-01
1.600549519062042236e-01
1.513417661190032959e-01
1.344197243452072144e-01
1.195325106382369995e-01
1.153759211301803589e-01
1.225412636995315552e-01
1.337762326002120972e-01
1.394285112619400024e-01
1.351675689220428467e-01
1.250978261232376099e-01
1.182107478380203247e-01
1.207847073674201965e-01
1.313066333532333374e-01
1.417937725782394409e-01
1.442633718252182007e-01
1.376545727252960205e-01
1.283848434686660767e-01
1.256543546915054321e-01
1.333936303853988647e-01
1.472025662660598755e-01
1.577418744564056396e-01
1.583157926797866821e-01
1.502286940813064575e-01
1.418111622333526611e-01
1.415155082941055298e-01
1.507852375507354736e-01
1.630810946226119995e-01
1.695681661367416382e-01
1.658985316753387451e-01
1.561940163373947144e-01
1.494460701942443848e-01
1.521591693162918091e-01
1.631854474544525146e-01
1.747334748506546021e-01
1.788726747035980225e-01
1.739682406187057495e-01
1.659159362316131592e-01
1.636028438806533813e-01
1.712029725313186646e-01
1.847510337829589844e-01
1.955164372920989990e-01
1.965773254632949829e-01
1.890641599893569946e-01
1.810988038778305054e-01
1.811509728431701660e-01
1.912902891635894775e-01
2.051513940095901489e-01
2.136906683444976807e-01
2.120384722948074341e-01
2.039861530065536499e-01
1.986469328403472900e-01
2.032557129859924316e-01
2.169602960348129272e-01
2.318822890520095825e-01
2.389780730009078979e-01
2.353780120611190796e-01
2.266648113727569580e-01
2.220560312271118164e-01
2.269256860017776489e-01
2.384911030530929565e-01
2.484217137098312378e-01
2.494130283594131470e-01
2.412042021751403809e-01
2.310996651649475098e-01
2.280213534832000732e-01
2.351345270872116089e-01
2.476912587881088257e-01
2.566305398941040039e-01
2.559696733951568604e-01
2.474477887153625488e-01
2.388041466474533081e-01
2.374476045370101929e-01
2.437433749437332153e-01
2.508043646812438965e-01
2.501956522464752197e-01
2.392563372850418091e-01
2.233951836824417114e-01
2.120210826396942139e-01
2.106297463178634644e-01
2.161081135272979736e-01
2.194125056266784668e-01
2.126645743846893311e-01
1.958121061325073242e-01
1.768378615379333496e-01
1.650811284780502319e-01
1.640376299619674683e-01
1.687681525945663452e-01
1.701942682266235352e-01
1.623158603906631470e-01
1.470112502574920654e-01
1.323675215244293213e-01
1.260369718074798584e-01
1.289413720369338989e-01
1.348719149827957153e-01
1.354806125164031982e-01
1.271326392889022827e-01
1.143324226140975952e-01
1.057757511734962463e-01
1.073062121868133545e-01
1.168368160724639893e-01
1.263326257467269897e-01
1.278978735208511353e-01
1.205933988094329834e-01
1.108541041612625122e-01
1.076018735766410828e-01
1.143150329589843750e-01
1.263326257467269897e-01
1.341414600610733032e-01
1.311848908662796021e-01
2.551562786102294922e-01
2.503798902034759521e-01
2.484756559133529663e-01
2.493558079004287720e-01
2.502009570598602295e-01
2.476018220186233521e-01
2.403034716844558716e-01
2.302149385213851929e-01
2.207613736391067505e-01
2.142363488674163818e-01
2.102092206478118896e-01
2.061681449413299561e-01
1.998022049665451050e-01
1.911386698484420776e-01
1.824084222316741943e-01
1.761495471000671387e-01
1.729907840490341187e-01
1.711667180061340332e-01
1.679131090641021729e-01
1.617636382579803467e-01
1.536985337734222412e-01
1.461813300848007202e-01
1.413747966289520264e-01
1.394633501768112183e-01
1.386124044656753540e-01
1.364926546812057495e-01
1.322696059942245483e-01
1.273814141750335693e-01
1.243989616632461548e-01
1.249590218067169189e-01
1.283184885978698730e-01
1.317685097455978394e-01
1.328381896018981934e-01
1.312638521194458008e-01
1.291140317916870117e-01
1.289213597774505615e-01
1.315557807683944702e-01
1.354684680700302124e-01
1.377706527709960938e-01
1.366483718156814575e-01
1.327621489763259888e-01
1.287404149770736694e-01
1.272509843111038208e-01
1.289951801300048828e-01
1.324834078550338745e-01
1.351898759603500366e-01
1.355244219303131104e-01
1.336380988359451294e-01
1.304995715618133545e-01
1.266602426767349243e-01
1.223012953996658325e-01
1.179587021470069885e-01
1.148461475968360901e-01
1.141157448291778564e-01
1.153911575675010681e-01
1.159192994236946106e-01
1.119044944643974304e-01
1.010001301765441895e-01
8.405422419309616089e-02
6.482207775115966797e-02
4.787725210189819336e-02
3.619150444865226746e-02
3.031475841999053955e-02
3.023312799632549286e-02
3.900663927197456360e-02
6.549702584743499756e-02
1.231210380792617798e-01
2.238439321517944336e-01
3.700495064258575439e-01
5.488159656524658203e-01
7.327538132667541504e-01
8.875558972358703613e-01
9.825707077980041504e-01
1.000000000000000000e+00
9.391718506813049316e-01
8.151921033859252930e-01
6.533220410346984863e-01
4.814349710941314697e-01
3.230268061161041260e-01
1.930444687604904175e-01
9.744112938642501831e-02
3.579011932015419006e-02
4.678407683968544006e-03
0.000000000000000000e+00
1.712499186396598816e-02
4.994676262140274048e-02
9.028762578964233398e-02
1.288732737302780151e-01
1.575637012720108032e-01
1.718049645423889160e-01
1.720503717660903931e-01
1.633725017309188843e-01
1.527919620275497437e-01
1.460163146257400513e-01
1.451275497674942017e-01
1.481935232877731323e-01
1.513489633798599243e-01
1.518492102622985840e-01
1.497776806354522705e-01
1.475616842508316040e-01
1.476767957210540771e-01
1.507008373737335205e-01
1.549226492643356323e-01
1.578456461429595947e-01
1.583239883184432983e-01
1.573988199234008789e-01
1.572480797767639160e-01
1.592687815427780151e-01
1.627986580133438110e-01
1.656816452741622925e-01
1.660870611667633057e-01
1.642798930406570435e-01
1.625741869211196899e-01
1.634605079889297485e-01
1.676491647958755493e-01
1.732824295759201050e-01
1.773816943168640137e-01
1.781787425279617310e-01
1.765598356723785400e-01
1.753281354904174805e-01
1.768623888492584229e-01
1.812568306922912598e-01
1.862532198429107666e-01
1.890842765569686890e-01
1.887467354536056519e-01
1.869236081838607788e-01
1.867226064205169678e-01
1.902574896812438965e-01
1.969346404075622559e-01
2.037961781024932861e-01
2.077535390853881836e-01
2.080249786376953125e-01
2.066535651683807373e-01
2.069232910871505737e-01
2.108544558286666870e-01
2.175052314996719360e-01
2.237458825111389160e-01
2.268811613321304321e-01
2.268470376729965210e-01
2.259990721940994263e-01
2.271542698144912720e-01
2.311614751815795898e-01
2.362294346094131470e-01
2.394989728927612305e-01
2.396948039531707764e-01
2.383289486169815063e-01
2.384220212697982788e-01
2.419700026512145996e-01
2.482651323080062866e-01
2.542760670185089111e-01
2.569704651832580566e-01
2.556673288345336914e-01
2.524769008159637451e-01
2.505357563495635986e-01
2.516906559467315674e-01
2.551696896553039551e-01
2.582984566688537598e-01
2.588400542736053467e-01
2.567469477653503418e-01
2.541507184505462646e-01
2.534061372280120850e-01
2.549318373203277588e-01
2.566020190715789795e-01
2.552187740802764893e-01
2.492566555738449097e-01
2.403316795825958252e-01
2.320307940244674683e-01
2.272342443466186523e-01
2.258529067039489746e-01
2.249546200037002563e-01
2.211150377988815308e-01
2.131852060556411743e-01
2.032360136508941650e-01
1.947810202836990356e-01
1.901702284812927246e-01
1.887753158807754517e-01
1.875671297311782837e-01
1.835653781890869141e-01
1.761159002780914307e-01
1.674174070358276367e-01
1.605887711048126221e-01
1.574059724807739258e-01
1.570860147476196289e-01
1.571216434240341187e-01
1.555668860673904419e-01
1.525819897651672363e-01
1.499825119972229004e-01
1.495261639356613159e-01
1.512487977743148804e-01
1.534238308668136597e-01
1.539222896099090576e-01
1.520093381404876709e-01
1.489897668361663818e-01
1.470975577831268311e-01
1.477463990449905396e-01
1.502561122179031372e-01
1.524362564086914062e-01
1.522910594940185547e-01
1.497090905904769897e-01
1.465942263603210449e-01
1.783381849527359009e-01
1.823543310165405273e-01
1.749009490013122559e-01
1.613691002130508423e-01
1.520342975854873657e-01
1.541328281164169312e-01
1.656385064125061035e-01
1.774879246950149536e-01
1.807985305786132812e-01
1.741411387920379639e-01
1.643359810113906860e-01
1.610796600580215454e-01
1.682254821062088013e-01
1.810337007045745850e-01
1.899343281984329224e-01
1.885232627391815186e-01
1.786457300186157227e-01
1.691481024026870728e-01
1.685511171817779541e-01
1.779401898384094238e-01
1.901333332061767578e-01
1.952529996633529663e-01
1.889393478631973267e-01
1.756788492202758789e-01
1.659098714590072632e-01
1.674837619066238403e-01
1.792246252298355103e-01
1.923946738243103027e-01
1.968992501497268677e-01
1.900609582662582397e-01
1.783743649721145630e-01
1.719340831041336060e-01
1.761853992938995361e-01
1.877634525299072266e-01
1.970620751380920410e-01
1.963384449481964111e-01
1.857191920280456543e-01
1.734356135129928589e-01
1.687681972980499268e-01
1.747924089431762695e-01
1.857734620571136475e-01
1.917795836925506592e-01
1.868950873613357544e-01
1.740687787532806396e-01
1.630334556102752686e-01
1.621108204126358032e-01
1.715360879898071289e-01
1.834578514099121094e-01
1.882699877023696899e-01
1.826075911521911621e-01
1.716808080673217773e-01
1.646977961063385010e-01
1.663078665733337402e-01
1.720607131719589233e-01
1.718979030847549438e-01
1.575338691473007202e-01
1.291857361793518066e-01
9.566365927457809448e-02
6.762306392192840576e-02
5.011125653982162476e-02
3.976337239146232605e-02
2.905367501080036163e-02
1.407456956803798676e-02
0.000000000000000000e+00
8.140818099491298199e-04
3.357635065913200378e-02
1.101181358098983765e-01
2.323751300573348999e-01
3.921522498130798340e-01
5.725166201591491699e-01
7.500225901603698730e-01
8.974618911743164062e-01
9.875716567039489746e-01
1.000000000000000000e+00
9.292291402816772461e-01
7.890623807907104492e-01
6.103804707527160645e-01
4.302693605422973633e-01
2.786511480808258057e-01
1.679179370403289795e-01
9.470485150814056396e-02
4.741574078798294067e-02
1.778316497802734375e-02
5.698572844266891479e-03
1.619118265807628632e-02
5.012935027480125427e-02
9.839535504579544067e-02
1.442914754152297974e-01
1.717893481254577637e-01
1.755160391330718994e-01
1.627440005540847778e-01
1.480362564325332642e-01
1.430432200431823730e-01
1.491759717464447021e-01
1.587097644805908203e-01
1.618032753467559814e-01
1.552725434303283691e-01
1.447075605392456055e-01
1.397145241498947144e-01
1.454492807388305664e-01
1.581127792596817017e-01
1.682073920965194702e-01
1.684063822031021118e-01
1.592705845832824707e-01
1.495377868413925171e-01
1.483257114887237549e-01
1.581489592790603638e-01
1.725491583347320557e-01
1.817392408847808838e-01
1.800929903984069824e-01
1.707943677902221680e-01
1.630334556102752686e-01
1.645168811082839966e-01
1.751542240381240845e-01
1.873473525047302246e-01
1.923403888940811157e-01
1.873473525047302246e-01
1.776869148015975952e-01
1.727119833230972290e-01
1.778859198093414307e-01
1.906217783689498901e-01
2.018741965293884277e-01
2.038641721010208130e-01
1.964288949966430664e-01
1.873654574155807495e-01
1.862619221210479736e-01
1.963927149772644043e-01
2.121316343545913696e-01
2.234383225440979004e-01
2.236373126506805420e-01
2.148995101451873779e-01
2.059265226125717163e-01
2.046239823102951050e-01
2.113356441259384155e-01
2.195850014686584473e-01
2.231126874685287476e-01
2.215568870306015015e-01
2.210141718387603760e-01
2.275629937648773193e-01
2.409863024950027466e-01
2.540839910507202148e-01
2.585342824459075928e-01
2.531432509422302246e-01
2.446949034929275513e-01
2.425601929426193237e-01
2.507733702659606934e-01
2.644137740135192871e-01
2.738209366798400879e-01
2.725183963775634766e-01
2.625685334205627441e-01
2.533784508705139160e-01
2.534869909286499023e-01
2.639795839786529541e-01
2.775657176971435547e-01
2.843316495418548584e-01
2.798994183540344238e-01
2.688460052013397217e-01
2.612479031085968018e-01
2.641062140464782715e-01
2.757385671138763428e-01
2.869909703731536865e-01
2.886914908885955811e-01
2.787777781486511230e-01
2.640338540077209473e-01
2.546266913414001465e-01
2.558568716049194336e-01
2.640700340270996094e-01
2.696962654590606689e-01
2.649022340774536133e-01
2.500135600566864014e-01
2.332615703344345093e-01
2.243247628211975098e-01
2.262423783540725708e-01
2.331168502569198608e-01
2.351068258285522461e-01
2.261157482862472534e-01
2.090923935174942017e-01
1.935886591672897339e-01
1.875644475221633911e-01
1.909474134445190430e-01
1.960670799016952515e-01
1.941494643688201904e-01
1.824809610843658447e-01
1.671400368213653564e-01
1.578595042228698730e-01
1.600665748119354248e-01
1.705772727727890015e-01
1.798035353422164917e-01
1.796769052743911743e-01
1.699260026216506958e-01
1.581489592790603638e-01
1.536443680524826050e-01
1.594153046607971191e-01
1.699621975421905518e-01
1.759321242570877075e-01
1.719340831041336060e-01
1.613148301839828491e-01
1.532463729381561279e-01
1.552182585000991821e-01
1.667601317167282104e-01
1.226932704448699951e-01
1.343070864677429199e-01
1.407018154859542847e-01
1.363555341958999634e-01
1.247239038348197937e-01
1.156929135322570801e-01
1.178126111626625061e-01
1.311008185148239136e-01
1.476487368345260620e-01
1.576059907674789429e-01
1.573744267225265503e-01
1.521375179290771484e-01
1.510865688323974609e-01
1.595831811428070068e-01
1.742607802152633667e-01
1.861239820718765259e-01
1.876558661460876465e-01
1.794264316558837891e-01
1.699501276016235352e-01
1.687923073768615723e-01
1.792126893997192383e-01
1.952084004878997803e-01
2.065016031265258789e-01
2.063234746456146240e-01
1.965799778699874878e-01
1.859102249145507812e-01
1.827930212020874023e-01
1.884752362966537476e-01
1.960456073284149170e-01
1.963484138250350952e-01
1.851442754268646240e-01
1.668507307767868042e-01
1.509796977043151855e-01
1.445493400096893311e-01
1.467046737670898438e-01
1.499465554952621460e-01
1.462593525648117065e-01
1.340577155351638794e-01
1.197541877627372742e-01
1.123441383242607117e-01
1.155504062771797180e-01
1.248664036393165588e-01
1.310117542743682861e-01
1.272532939910888672e-01
1.154079064726829529e-01
1.041325256228446960e-01
1.018346995115280151e-01
1.096188127994537354e-01
1.204132512211799622e-01
1.248664036393165588e-01
1.188279315829277039e-01
1.070359796285629272e-01
9.923405945301055908e-02
1.023512631654739380e-01
1.145885288715362549e-01
1.270573586225509644e-01
1.304239332675933838e-01
1.221054494380950928e-01
1.062878519296646118e-01
8.929461985826492310e-02
7.354827225208282471e-02
5.623441562056541443e-02
3.464552760124206543e-02
1.204132568091154099e-02
0.000000000000000000e+00
1.400071289390325546e-02
6.697542220354080200e-02
1.640897691249847412e-01
3.017278313636779785e-01
4.689526259899139404e-01
6.478624939918518066e-01
8.143213391304016113e-01
9.403633475303649902e-01
1.000000000000000000e+00
9.786961078643798828e-01
8.799785971641540527e-01
7.264873385429382324e-01
5.525293946266174316e-01
3.907730579376220703e-01
2.608835101127624512e-01
1.656751036643981934e-01
9.750623255968093872e-02
4.832561314105987549e-02
1.767010986804962158e-02
1.132882107049226761e-02
3.307801857590675354e-02
7.645172625780105591e-02
1.251514106988906860e-01
1.605094373226165771e-01
1.725685745477676392e-01
1.647666543722152710e-01
1.501425057649612427e-01
1.412896364927291870e-01
1.423049569129943848e-01
1.478446722030639648e-01
1.492696851491928101e-01
1.426255851984024048e-01
1.320627033710479736e-01
1.264161020517349243e-01
1.312255114316940308e-01
1.439615190029144287e-01
1.555575281381607056e-01
1.576237976551055908e-01
1.495012491941452026e-01
1.387958675622940063e-01
1.353936642408370972e-01
1.430352628231048584e-01
1.565372347831726074e-01
1.659066677093505859e-01
1.646241545677185059e-01
1.547915935516357422e-01
1.453865319490432739e-01
1.449412256479263306e-01
1.547737866640090942e-01
1.679372936487197876e-01
1.750801503658294678e-01
1.719273179769515991e-01
1.625935137271881104e-01
1.563769131898880005e-01
1.597613096237182617e-01
1.713751405477523804e-01
1.831670850515365601e-01
1.868542879819869995e-01
1.808336228132247925e-01
1.715888828039169312e-01
1.683826148509979248e-01
1.755254715681076050e-01
1.886355578899383545e-01
1.984859257936477661e-01
1.982187330722808838e-01
1.895618140697479248e-01
1.811720728874206543e-01
1.820448935031890869e-01
1.936765164136886597e-01
2.091200500726699829e-01
2.184894979000091553e-01
2.164232283830642700e-01
2.068222314119338989e-01
1.996615678071975708e-01
2.028500139713287354e-01
2.157997936010360718e-01
2.302458137273788452e-01
2.364624142646789551e-01
2.313145697116851807e-01
2.205913811922073364e-01
2.142322808504104614e-01
2.180441766977310181e-01
2.292661219835281372e-01
2.389027476310729980e-01
2.396865040063858032e-01
2.319201976060867310e-01
2.234592139720916748e-01
2.231920212507247925e-01
2.331314533948898315e-01
2.470431029796600342e-01
2.552547156810760498e-01
2.524759471416473389e-01
2.422515153884887695e-01
2.335233390331268311e-01
2.340933382511138916e-01
2.434805780649185181e-01
2.543818950653076172e-01
2.580334842205047607e-01
2.516565620899200439e-01
2.401140034198760986e-01
2.324901968240737915e-01
2.343427091836929321e-01
2.428393363952636719e-01
2.491450011730194092e-01
2.457962185144424438e-01
2.324189543724060059e-01
2.163341641426086426e-01
2.066262960433959961e-01
2.064837962388992310e-01
2.109191268682479858e-01
2.105806916952133179e-01
1.996437460184097290e-01
1.807801872491836548e-01
1.631457060575485229e-01
1.551478505134582520e-01
1.578019261360168457e-01
1.642144620418548584e-01
1.649804115295410156e-01
1.557178497314453125e-01
1.408443152904510498e-01
1.296223700046539307e-01
1.289454996585845947e-01
1.371927261352539062e-01
1.458852887153625488e-01
1.464552879333496094e-01
1.371392905712127686e-01
1.245635896921157837e-01
1.181154251098632812e-01
1.222301423549652100e-01
1.327573955059051514e-01
1.405415087938308716e-01
1.388849318027496338e-01
1.288029998540878296e-01
1.187388673424720764e-01
1.166904196143150330e-01
1.210446953773498535e-01
1.332351118326187134e-01
1.387778073549270630e-01
1.333578824996948242e-01
1.219567805528640747e-01
1.147653162479400635e-01
1.191678941249847412e-01
1.341471970081329346e-01
1.511787027120590210e-01
1.620535999536514282e-01
1.649828106164932251e-01
1.649126559495925903e-01
1.679120212793350220e-01
1.748052984476089478e-01
1.805584728717803955e-01
1.799621134996414185e-01
1.734722554683685303e-01
1.681400388479232788e-01
1.714902073144912720e-01
1.846278011798858643e-01
2.002911716699600220e-01
2.083771824836730957e-01
2.037114948034286499e-01
1.908545643091201782e-01
1.803304553031921387e-01
1.802953779697418213e-01
1.897846013307571411e-01
1.997123360633850098e-01
1.995720267295837402e-01
1.859433054924011230e-01
1.651231348514556885e-01
1.479162275791168213e-01
1.410931050777435303e-01
1.426541805267333984e-01
1.442327946424484253e-01
1.381989717483520508e-01
1.242370009422302246e-01
1.099066883325576782e-01
1.040307283401489258e-01
1.093103215098381042e-01
1.196414753794670105e-01
1.249912306666374207e-01
1.192380562424659729e-01
1.054164022207260132e-01
9.347154945135116577e-02
9.229636192321777344e-02
1.025222763419151306e-01
1.162386834621429443e-01
1.233775317668914795e-01
1.193959191441535950e-01
1.091524586081504822e-01
1.025047376751899719e-01
1.056093424558639526e-01
1.160282045602798462e-01
1.247456669807434082e-01
1.230267286300659180e-01
1.096611246466636658e-01
9.110362827777862549e-02
7.610678672790527344e-02
6.824878603219985962e-02
6.346032768487930298e-02
5.439205840229988098e-02
3.744825720787048340e-02
1.790850982069969177e-02
8.629762567579746246e-03
2.417035028338432312e-02
7.521223276853561401e-02
1.656668782234191895e-01
2.932014167308807373e-01
4.506595134735107422e-01
6.248333454132080078e-01
7.940959930419921875e-01
9.293131232261657715e-01
1.000000000000000000e+00
9.865466952323913574e-01
8.896548151969909668e-01
7.326878309249877930e-01
5.531116127967834473e-01
3.864098787307739258e-01
2.530519962310791016e-01
1.553006321191787720e-01
8.468392491340637207e-02
3.383498266339302063e-02
3.420332446694374084e-03
0.000000000000000000e+00
2.648565173149108887e-02
7.473865151405334473e-02
1.267101615667343140e-01
1.630709320306777954e-01
1.746123582124710083e-01
1.659124344587326050e-01
1.510734558105468750e-01
1.427067965269088745e-01
1.442678719758987427e-01
1.499333530664443970e-01
1.507752686738967896e-01
1.435662657022476196e-01
1.332877278327941895e-01
1.290079355239868164e-01
1.357258111238479614e-01
1.494773030281066895e-01
1.605451554059982300e-01
1.610713601112365723e-01
1.516171991825103760e-01
1.406019777059555054e-01
1.379709541797637939e-01
1.462674587965011597e-01
1.596681326627731323e-01
1.685785502195358276e-01
1.673682779073715210e-01
1.591945588588714600e-01
1.529502570629119873e-01
1.559671610593795776e-01
1.677892357110977173e-01
1.804181635379791260e-01
1.845576316118240356e-01
1.778222173452377319e-01
1.665965020656585693e-01
1.616501808166503906e-01
1.689293533563613892e-01
1.849084347486495972e-01
1.993615329265594482e-01
2.030274271965026855e-01
1.954325437545776367e-01
1.847681254148483276e-01
1.812600791454315186e-01
1.887497305870056152e-01
2.022732049226760864e-01
2.124464958906173706e-01
2.131831943988800049e-01
2.069739699363708496e-01
2.021153420209884644e-01
2.059040218591690063e-01
2.181470543146133423e-01
2.312144786119461060e-01
2.361432611942291260e-01
2.300217449665069580e-01
2.188486605882644653e-01
2.128323912620544434e-01
2.182873785495758057e-01
2.323370575904846191e-01
2.453693896532058716e-01
2.483161389827728271e-01
2.403002828359603882e-01
2.291798144578933716e-01
2.252508252859115601e-01
2.328808009624481201e-01
2.471234053373336792e-01
2.580509483814239502e-01
2.585069835186004639e-01
2.495965808629989624e-01
2.399319410324096680e-01
2.383182495832443237e-01
2.464568912982940674e-01
2.583666741847991943e-01
2.650494575500488281e-01
2.617869973182678223e-01
2.524205446243286133e-01
2.455272525548934937e-01
2.477373182773590088e-01
2.579456865787506104e-01
2.685399651527404785e-01
2.712236046791076660e-01
2.635760903358459473e-01
2.511050403118133545e-01
2.428962290287017822e-01
2.439486384391784668e-01
2.515961527824401855e-01
2.573668658733367920e-01
2.541219294071197510e-01
2.416333407163619995e-01
2.270749956369400024e-01
2.189539074897766113e-01
2.201115489006042480e-01
2.253034412860870361e-01
2.255665510892868042e-01
2.156037390232086182e-01
1.987300962209701538e-01
1.841892898082733154e-01
1.795411556959152222e-01
1.842769980430603027e-01
1.899424642324447632e-01
1.872588247060775757e-01
1.738055199384689331e-01
1.561250239610671997e-01
1.448116153478622437e-01
1.456535458564758301e-01
1.553006321191787720e-01
1.642987430095672607e-01
1.642285883426666260e-01
1.545814871788024902e-01
1.428471207618713379e-01
1.381463557481765747e-01
1.436013430356979370e-01
1.539675891399383545e-01
1.600013971328735352e-01
1.562653481960296631e-01
1.454255282878875732e-01
1.368659287691116333e-01
1.384270042181015015e-01
1.355446279048919678e-01
1.277273148298263550e-01
1.278106570243835449e-01
1.367947310209274292e-01
1.491124331951141357e-01
1.572964340448379517e-01
1.576131284236907959e-01
1.533961147069931030e-01
1.517626494169235229e-01
1.577131450176239014e-01
1.698974967002868652e-01
1.814151108264923096e-01
1.855487972497940063e-01
1.809150725603103638e-01
1.729144155979156494e-01
1.694141179323196411e-01
1.746978908777236938e-01
1.861488521099090576e-01
1.964163631200790405e-01
1.991332620382308960e-01
1.940495073795318604e-01
1.870489269495010376e-01
1.852821111679077148e-01
1.907659024000167847e-01
1.990165859460830688e-01
2.017834782600402832e-01
1.942495256662368774e-01
1.785315424203872681e-01
1.624301970005035400e-01
1.529960781335830688e-01
1.506125479936599731e-01
1.499458253383636475e-01
1.443620324134826660e-01
1.322443485260009766e-01
1.186265498399734497e-01
1.110092476010322571e-01
1.129760816693305969e-01
1.210934221744537354e-01
1.271272599697113037e-01
1.247437298297882080e-01
1.143428608775138855e-01
1.029585823416709900e-01
9.869156032800674438e-02
1.041586771607398987e-01
1.143928691744804382e-01
1.211600974202156067e-01
1.191932633519172668e-01
1.107925623655319214e-01
1.036919727921485901e-01
1.045420467853546143e-01
1.134594529867172241e-01
1.239769980311393738e-01
1.282106786966323853e-01
1.229602470993995667e-01
1.122593581676483154e-01
1.035252958536148071e-01
1.009584143757820129e-01
1.012584418058395386e-01
9.602466970682144165e-02
7.860655337572097778e-02
5.000416561961174011e-02
1.996833086013793945e-02
7.000583573244512081e-04
0.000000000000000000e+00
1.900158263742923737e-02
5.687140673398971558e-02
1.174264550209045410e-01
2.100675106048583984e-01
3.441786766052246094e-01
5.168930888175964355e-01
7.060921788215637207e-01
8.740061521530151367e-01
9.804316759109497070e-01
1.000000000000000000e+00
9.320776462554931641e-01
7.993665933609008789e-01
6.355529427528381348e-01
4.712226092815399170e-01
3.246937096118927002e-01
2.026168853044509888e-01
1.072922721505165100e-01
4.245353862643241882e-02
1.271772664040327072e-02
1.821818575263023376e-02
5.028752237558364868e-02
9.240770339965820312e-02
1.283607035875320435e-01
1.491957604885101318e-01
1.566963940858840942e-01
1.579298228025436401e-01
1.588132381439208984e-01
1.594966202974319458e-01
1.567630618810653687e-01
1.487123966217041016e-01
1.383448690176010132e-01
1.322943568229675293e-01
1.349279135465621948e-01
1.446453928947448730e-01
1.545295417308807373e-01
1.575797945261001587e-01
1.522626876831054688e-01
1.438453197479248047e-01
1.403950303792953491e-01
1.458954960107803345e-01
1.574631184339523315e-01
1.673306077718734741e-01
1.689974218606948853e-01
1.625802218914031982e-01
1.543795317411422729e-01
1.520126610994338989e-01
1.578964889049530029e-01
1.678139865398406982e-01
1.742145121097564697e-01
1.726143807172775269e-01
1.652470976114273071e-01
1.592299342155456543e-01
1.604467034339904785e-01
1.686140447854995728e-01
1.777314841747283936e-01
1.810317486524581909e-01
1.763480305671691895e-01
1.682140231132507324e-01
1.641970127820968628e-01
1.688140630722045898e-01
1.798316538333892822e-01
1.903825253248214722e-01
1.939161568880081177e-01
1.898991614580154419e-01
1.839153319597244263e-01
1.832152605056762695e-01
1.905658841133117676e-01
2.022335231304168701e-01
2.110342532396316528e-01
2.119676619768142700e-01
2.063505351543426514e-01
2.008000612258911133e-01
2.017168104648590088e-01
2.099008262157440186e-01
2.201516777276992798e-01
2.254021167755126953e-01
2.225852161645889282e-01
2.152846008539199829e-01
2.109509110450744629e-01
2.147845625877380371e-01
2.254187911748886108e-01
2.359863370656967163e-01
2.395866364240646362e-01
2.349029034376144409e-01
2.273689508438110352e-01
2.248687446117401123e-01
2.310692518949508667e-01
2.427035570144653320e-01
2.521876692771911621e-01
2.535211145877838135e-01
2.472539395093917847e-01
2.397199720144271851e-01
2.377531528472900391e-01
2.431536018848419189e-01
2.514876127243041992e-01
2.556046247482299805e-01
2.514709532260894775e-01
2.416367977857589722e-01
2.332027703523635864e-01
2.318193167448043823e-01
2.373197823762893677e-01
2.434036135673522949e-01
2.423702031373977661e-01
2.312026023864746094e-01
2.143845260143280029e-01
2.005667090415954590e-01
1.956662982702255249e-01
1.983498632907867432e-01
2.014167904853820801e-01
1.975831389427185059e-01
1.857654750347137451e-01
1.716976463794708252e-01
1.632969379425048828e-01
1.636136323213577271e-01
1.687307208776473999e-01
1.707475632429122925e-01
1.641636788845062256e-01
1.505792140960693359e-01
1.374114453792572021e-01
1.316609680652618408e-01
1.346612274646759033e-01
1.407283991575241089e-01
1.421618461608886719e-01
1.353946179151535034e-01
1.243603602051734924e-01
1.169430762529373169e-01
1.187265589833259583e-01
1.280606687068939209e-01
1.376114636659622192e-01
1.402783542871475220e-01
1.347779035568237305e-01
1.268105655908584595e-01
1.237103119492530823e-01
1.287440657615661621e-01
1.382615268230438232e-01
1.447453945875167847e-01
1.094236373901367188e-01
1.198704913258552551e-01
1.307108849287033081e-01
1.346284598112106323e-01
1.302100121974945068e-01
1.231082975864410400e-01
1.213731169700622559e-01
1.288325935602188110e-01
1.420700550079345703e-01
1.530356705188751221e-01
1.555400490760803223e-01
1.500304043292999268e-01
1.433222442865371704e-01
1.430539190769195557e-01
1.515688151121139526e-01
1.642517298460006714e-01
1.733569502830505371e-01
1.743944734334945679e-01
1.694214940071105957e-01
1.653965860605239868e-01
1.677399724721908569e-01
1.759507656097412109e-01
1.841615736484527588e-01
1.860040724277496338e-01
1.797431260347366333e-01
1.698508113622665405e-01
1.634825170040130615e-01
1.641801744699478149e-01
1.688311696052551270e-01
1.696182638406753540e-01
1.602268218994140625e-01
1.413187384605407715e-01
1.203713640570640564e-01
1.068834736943244934e-01
1.045937538146972656e-01
1.093878597021102905e-01
1.125004440546035767e-01
1.076347902417182922e-01
9.606096148490905762e-02
8.532789349555969238e-02
8.264462649822235107e-02
8.904869109392166138e-02
9.849379211664199829e-02
1.027870178222656250e-01
9.849379211664199829e-02
8.942434936761856079e-02
8.346749842166900635e-02
8.602554351091384888e-02
9.541697800159454346e-02
1.045937538146972656e-01
1.066867038607597351e-01
1.010518372058868408e-01
9.330614656209945679e-02
9.099853038787841797e-02
9.666917473077774048e-02
1.050051897764205933e-01
1.064362600445747375e-01
9.366390854120254517e-02
6.776143610477447510e-02
3.769095987081527710e-02
1.416765060275793076e-02
2.486494136974215508e-03
0.000000000000000000e+00
6.976494332775473595e-04
3.237809054553508759e-03
1.744123734533786774e-02
6.184036284685134888e-02
1.542342007160186768e-01
3.002039194107055664e-01
4.867983162403106689e-01
6.841436624526977539e-01
8.550856709480285645e-01
9.667453765869140625e-01
1.000000000000000000e+00
9.528281688690185547e-01
8.385388851165771484e-01
6.804586648941040039e-01
5.055454373359680176e-01
3.389145433902740479e-01
1.996708512306213379e-01
9.842223674058914185e-02
3.645665571093559265e-02
7.495259400457143784e-03
2.522271126508712769e-03
1.370255090296268463e-02
3.656398877501487732e-02
6.849486380815505981e-02
1.053271815180778503e-01
1.391363441944122314e-01
1.609960347414016724e-01
1.651282608509063721e-01
1.534471064805984497e-01
1.355228722095489502e-01
1.228936389088630676e-01
1.218382194638252258e-01
1.300847977399826050e-01
1.388501375913619995e-01
1.401023268699645996e-01
1.326965093612670898e-01
1.231440752744674683e-01
1.199957057833671570e-01
1.269006431102752686e-01
1.393688917160034180e-01
1.486351042985916138e-01
1.485993415117263794e-01
1.407641917467117310e-01
1.328753829002380371e-01
1.326965093612670898e-01
1.413902938365936279e-01
1.529462337493896484e-01
1.591356247663497925e-01
1.560051590204238892e-01
1.473292559385299683e-01
1.416586190462112427e-01
1.449500918388366699e-01
1.563271433115005493e-01
1.684912890195846558e-01
1.735894978046417236e-01
1.699223667383193970e-01
1.625523269176483154e-01
1.597796082496643066e-01
1.658437997102737427e-01
1.777932792901992798e-01
1.877392530441284180e-01
1.897069811820983887e-01
1.840542405843734741e-01
1.774712949991226196e-01
1.771314144134521484e-01
1.849486529827117920e-01
1.962183862924575806e-01
2.033201009035110474e-01
2.023183405399322510e-01
1.957890540361404419e-01
1.910665035247802734e-01
1.941075474023818970e-01
2.042860686779022217e-01
2.151980251073837280e-01
2.196522504091262817e-01
2.153411358594894409e-01
2.071124464273452759e-01
2.032664269208908081e-01
2.084898501634597778e-01
2.205466777086257935e-01
2.321204990148544312e-01
2.364316135644912720e-01
2.328360378742218018e-01
2.268791794776916504e-01
2.258058786392211914e-01
2.321741580963134766e-01
2.418875843286514282e-01
2.478086650371551514e-01
2.454473972320556641e-01
2.370040416717529297e-01
2.298665493726730347e-01
2.304031997919082642e-01
2.387571036815643311e-01
2.487567514181137085e-01
2.527101039886474609e-01
2.478981018066406250e-01
2.385603338479995728e-01
2.325677126646041870e-01
2.346606552600860596e-01
2.424957901239395142e-01
2.483274340629577637e-01
2.453221678733825684e-01
2.330685853958129883e-01
2.183463871479034424e-01
2.099567055702209473e-01
2.116382271051406860e-01
2.190082669258117676e-01
2.231762707233428955e-01
2.176487445831298828e-01
2.033379822969436646e-01
1.877392530441284180e-01
1.790096908807754517e-01
1.791706979274749756e-01
1.828736066818237305e-01
1.822296231985092163e-01
1.733569502830505371e-01
1.594576239585876465e-01
1.481700092554092407e-01
1.451826393604278564e-01
1.493685394525527954e-01
1.537690907716751099e-01
1.510500460863113403e-01
1.395835578441619873e-01
1.249865815043449402e-01
1.158098131418228149e-01
1.166505664587020874e-01
1.251654624938964844e-01
1.333404928445816040e-01
1.343243569135665894e-01
1.275446265935897827e-01
1.189402863383293152e-01
1.162927970290184021e-01
1.223212033510208130e-01
1.329469382762908936e-01
1.401381045579910278e-01
1.385460197925567627e-01
1.300490200519561768e-01
1.350293159484863281e-01
1.439806818962097168e-01
1.451535075902938843e-01
1.389617174863815308e-01
1.325284540653228760e-01
1.334770619869232178e-01
1.438254565000534058e-01
1.583304554224014282e-01
1.686616092920303345e-01
1.700413972139358521e-01
1.647464632987976074e-01
1.601414233446121216e-01
1.625560522079467773e-01
1.717488765716552734e-01
1.816488504409790039e-01
1.852535307407379150e-01
1.809072047472000122e-01
1.735771000385284424e-01
1.714556813240051270e-01
1.785960644483566284e-01
1.916867941617965698e-01
2.026043534278869629e-01
2.044153213500976562e-01
1.965850293636322021e-01
1.858399510383605957e-01
1.797516345977783203e-01
1.810106933116912842e-01
1.849430799484252930e-01
1.837357729673385620e-01
1.727319806814193726e-01
1.549499779939651489e-01
1.384787857532501221e-01
1.304070353507995605e-01
1.311831623315811157e-01
1.346326321363449097e-01
1.332528442144393921e-01
1.243187338113784790e-01
1.122283563017845154e-01
1.047257706522941589e-01
1.065022423863410950e-01
1.153846159577369690e-01
1.239047944545745850e-01
1.252328455448150635e-01
1.185236275196075439e-01
1.092273220419883728e-01
1.052431836724281311e-01
1.094687804579734802e-01
1.184546425938606262e-01
1.246464326977729797e-01
1.224560216069221497e-01
1.132976859807968140e-01
1.043463274836540222e-01
1.028975471854209900e-01
1.098827198147773743e-01
1.195584684610366821e-01
1.230596750974655151e-01
1.156260743737220764e-01
9.953432530164718628e-02
8.145912736654281616e-02
6.691962480545043945e-02
5.588134005665779114e-02
4.398068413138389587e-02
2.783718518912792206e-02
9.882718324661254883e-03
0.000000000000000000e+00
1.250431220978498459e-02
6.071059033274650574e-02
1.525008678436279297e-01
2.874784469604492188e-01
4.559158384799957275e-01
6.387547254562377930e-01
8.093308210372924805e-01
9.382545948028564453e-01
1.000000000000000000e+00
9.810279607772827148e-01
8.851500749588012695e-01
7.337530255317687988e-01
5.588306188583374023e-01
3.928596079349517822e-01
2.576578259468078613e-01
1.601931750774383545e-01
9.539496153593063354e-02
5.413935706019401550e-02
3.121766075491905212e-02
2.776819653809070587e-02
4.561917856335639954e-02
8.128665387630462646e-02
1.236288398504257202e-01
1.576750576496124268e-01
1.728872060775756836e-01
1.690410524606704712e-01
1.554501503705978394e-01
1.444118618965148926e-01
1.426181495189666748e-01
1.479475647211074829e-01
1.528630554676055908e-01
1.509830951690673828e-01
1.424456685781478882e-01
1.338392496109008789e-01
1.324594616889953613e-01
1.398413181304931641e-01
1.510175913572311401e-01
1.581234931945800781e-01
1.570369154214859009e-01
1.504829227924346924e-01
1.457054167985916138e-01
1.479820609092712402e-01
1.564332544803619385e-01
1.649706810712814331e-01
1.674542874097824097e-01
1.627457737922668457e-01
1.559503227472305298e-01
1.540531218051910400e-01
1.602276712656021118e-01
1.709037572145462036e-01
1.787857860326766968e-01
1.784063428640365601e-01
1.707312911748886108e-01
1.624698191881179810e-01
1.612452566623687744e-01
1.690755486488342285e-01
1.812349110841751099e-01
1.895136237144470215e-01
1.893756538629531860e-01
1.832011044025421143e-01
1.781993806362152100e-01
1.805277615785598755e-01
1.900827884674072266e-01
2.007071375846862793e-01
2.052086889743804932e-01
2.015177607536315918e-01
1.941704005002975464e-01
1.909279078245162964e-01
1.963090747594833374e-01
2.078647762537002563e-01
2.185408771038055420e-01
2.219903469085693359e-01
2.176440209150314331e-01
2.113832384347915649e-01
2.105036228895187378e-01
2.176267653703689575e-01
2.292169779539108276e-01
2.379096299409866333e-01
2.389617115259170532e-01
2.336667776107788086e-01
2.284925878047943115e-01
2.296826541423797607e-01
2.381855845451354980e-01
2.485684752464294434e-01
2.536046802997589111e-01
2.497930377721786499e-01
2.406864464282989502e-01
2.339944839477539062e-01
2.357881963253021240e-01
2.449637800455093384e-01
2.547947466373443604e-01
2.579165101051330566e-01
2.523801326751708984e-01
2.435322552919387817e-01
2.389962077140808105e-01
2.426698803901672363e-01
2.512763142585754395e-01
2.575888335704803467e-01
2.556571364402770996e-01
2.462573349475860596e-01
2.355639934539794922e-01
2.302863001823425293e-01
2.317350804805755615e-01
2.352190464735031128e-01
2.337185293436050415e-01
2.238185554742813110e-01
2.087788879871368408e-01
1.961538493633270264e-01
1.915143132209777832e-01
1.939634382724761963e-01
1.967402547597885132e-01
1.926698833703994751e-01
1.799758523702621460e-01
1.636598855257034302e-01
1.520696729421615601e-01
1.497240364551544189e-01
1.540013849735260010e-01
1.573128700256347656e-01
1.532424986362457275e-01
1.416523009538650513e-01
1.290789991617202759e-01
1.230424270033836365e-01
1.265608817338943481e-01
1.353397667407989502e-01
1.415660530328750610e-01
1.396171152591705322e-01
1.309417039155960083e-01
1.226974800229072571e-01
1.218178719282150269e-01
1.294239461421966553e-01
1.399448066949844360e-01
1.455329358577728271e-01
1.424974203109741211e-01
1.344084143638610840e-01
1.290445029735565186e-01
1.234853938221931458e-01
1.340061128139495850e-01
1.385027319192886353e-01
1.351216882467269897e-01
1.290632635354995728e-01
1.284797340631484985e-01
1.373185068368911743e-01
1.521985381841659546e-01
1.647272855043411255e-01
1.681083291769027710e-01
1.621357202529907227e-01
1.536401957273483276e-01
1.507568806409835815e-01
1.567466408014297485e-01
1.679881960153579712e-01
1.771015673875808716e-01
1.790752708911895752e-01
1.749390661716461182e-01
1.706655621528625488e-01
1.715580224990844727e-01
1.780111938714981079e-01
1.849449127912521362e-01
1.862149387598037720e-01
1.799334138631820679e-01
1.698760837316513062e-01
1.626677662134170532e-01
1.620670706033706665e-01
1.655510962009429932e-01
1.665293723344802856e-01
1.591665744781494141e-01
1.436858475208282471e-01
1.263858824968338013e-01
1.152644753456115723e-01
1.136855110526084900e-01
1.179418563842773438e-01
1.204819306731224060e-01
1.155905649065971375e-01
1.043490171432495117e-01
9.374248981475830078e-02
9.075618535280227661e-02
9.705488383769989014e-02
1.070263981819152832e-01
1.127072423696517944e-01
1.093948408961296082e-01
9.998970478773117065e-02
9.206055104732513428e-02
9.168297052383422852e-02
9.858236461877822876e-02
1.066659837961196899e-01
1.093261912465095520e-01
1.048810631036758423e-01
9.805031865835189819e-02
9.559606015682220459e-02
1.007105335593223572e-01
1.099097207188606262e-01
1.152301505208015442e-01
1.097380965948104858e-01
9.240380674600601196e-02
6.877081096172332764e-02
4.690556973218917847e-02
3.142484650015830994e-02
2.143617160618305206e-02
1.246009673923254013e-02
2.917653415352106094e-03
0.000000000000000000e+00
1.958260312676429749e-02
7.977207750082015991e-02
1.909518390893936157e-01
3.496721982955932617e-01
5.374317765235900879e-01
7.252085208892822266e-01
8.811828494071960449e-01
9.783578515052795410e-01
1.000000000000000000e+00
9.428826570510864258e-01
8.184018135070800781e-01
6.503449678421020508e-01
4.694676101207733154e-01
3.047575056552886963e-01
1.761919409036636353e-01
9.036144614219665527e-02
4.239178821444511414e-02
2.203686535358428955e-02
2.042357437312602997e-02
3.339855000376701355e-02
5.910822749137878418e-02
9.375965595245361328e-02
1.293206959962844849e-01
1.554422825574874878e-01
1.647616177797317505e-01
1.573816686868667603e-01
1.413174122571945190e-01
1.278962045907974243e-01
1.239659488201141357e-01
1.288573145866394043e-01
1.355335861444473267e-01
1.367349773645401001e-01
1.303504556417465210e-01
1.214601993560791016e-01
1.177015751600265503e-01
1.229533553123474121e-01
1.341090798377990723e-01
1.437373459339141846e-01
1.457110494375228882e-01
1.403906196355819702e-01
1.338173151016235352e-01
1.330964863300323486e-01
1.402876526117324829e-01
1.510314792394638062e-01
1.579995155334472656e-01
1.571928709745407104e-01
1.507740318775177002e-01
1.458826810121536255e-01
1.483540982007980347e-01
1.583770960569381714e-01
1.700648814439773560e-01
1.762262731790542603e-01
1.739093065261840820e-01
1.668726205825805664e-01
1.621700525283813477e-01
1.645041704177856445e-01
1.721072345972061157e-01
1.788350045680999756e-01
1.791267693042755127e-01
1.729481965303421021e-01
1.660831421613693237e-01
1.654652804136276245e-01
1.730340123176574707e-01
1.844300329685211182e-01
1.923591792583465576e-01
1.926166266202926636e-01
1.873305141925811768e-01
1.835032403469085693e-01
1.870730817317962646e-01
1.979198902845382690e-01
2.100882232189178467e-01
2.164555639028549194e-01
2.141729295253753662e-01
2.073421925306320190e-01
2.036350518465042114e-01
2.082689702510833740e-01
2.195963412523269653e-01
2.308550477027893066e-01
2.353345006704330444e-01
2.318333089351654053e-01
2.257577329874038696e-01
2.248824387788772583e-01
2.326742857694625854e-01
2.454776316881179810e-01
2.556379437446594238e-01
2.571825683116912842e-01
2.506950795650482178e-01
2.430233806371688843e-01
2.412727773189544678e-01
2.474341839551925659e-01
2.565818727016448975e-01
2.611128389835357666e-01
2.568736374378204346e-01
2.465245574712753296e-01
2.374283522367477417e-01
2.356949150562286377e-01
2.411183267831802368e-01
2.472282350063323975e-01
2.469364702701568604e-01
2.378059178590774536e-01
2.245048582553863525e-01
2.146191596984863281e-01
2.121477425098419189e-01
2.146363258361816406e-01
2.151855230331420898e-01
2.077884227037429810e-01
1.927882432937622070e-01
1.768269687891006470e-01
1.675247997045516968e-01
1.673875004053115845e-01
1.720557510852813721e-01
1.734802424907684326e-01
1.667524874210357666e-01
1.537260115146636963e-01
1.415748447179794312e-01
1.367521435022354126e-01
1.393436938524246216e-01
1.432911157608032227e-01
1.410599648952484131e-01
1.302989721298217773e-01
1.156592145562171936e-01
1.053272932767868042e-01
1.038684621453285217e-01
1.089829429984092712e-01
1.135996952652931213e-01
1.127930507063865662e-01
1.079531833529472351e-01
1.048982217907905579e-01
1.079188585281372070e-01
1.155390813946723938e-01
1.214258745312690735e-01
1.203446239233016968e-01
1.133079305291175842e-01
1.067346334457397461e-01
1.071808636188507080e-01
2.113404721021652222e-01
2.074816823005676270e-01
2.125537097454071045e-01
2.236751168966293335e-01
2.332968264818191528e-01
2.356727570295333862e-01
2.308703362941741943e-01
2.250568717718124390e-01
2.248883694410324097e-01
2.321341335773468018e-01
2.420928478240966797e-01
2.474850416183471680e-01
2.445024847984313965e-01
2.361108809709548950e-01
2.301794588565826416e-01
2.328587025403976440e-01
2.438116073608398438e-01
2.559103667736053467e-01
2.613868117332458496e-01
2.575954198837280273e-01
2.494734227657318115e-01
2.456651777029037476e-01
2.514954805374145508e-01
2.647569179534912109e-01
2.777150571346282959e-01
2.829219102859497070e-01
2.793495655059814453e-01
2.728789150714874268e-01
2.712444067001342773e-01
2.777993083000183105e-01
2.888701558113098145e-01
2.971606850624084473e-01
2.976493239402770996e-01
2.919538319110870361e-01
2.867301404476165771e-01
2.882466912269592285e-01
2.969921529293060303e-01
3.074732422828674316e-01
3.125452995300292969e-01
3.094784617424011230e-01
3.020305037498474121e-01
2.976661920547485352e-01
3.016092479228973389e-01
3.123767673969268799e-01
3.230769336223602295e-01
3.246945738792419434e-01
3.102367520332336426e-01
2.777487635612487793e-01
2.324374467134475708e-01
1.851040571928024292e-01
1.479315906763076782e-01
1.283343136310577393e-01
1.247956827282905579e-01
1.283343136310577393e-01
1.283174604177474976e-01
1.202123165130615234e-01
1.073047444224357605e-01
9.577891975641250610e-02
8.748841285705566406e-02
7.889460027217864990e-02
6.416715681552886963e-02
4.130086675286293030e-02
1.619344577193260193e-02
0.000000000000000000e+00
4.044148605316877365e-03
3.567276149988174438e-02
9.857612103223800659e-02
1.946583539247512817e-01
3.248125314712524414e-01
4.852135777473449707e-01
6.620271205902099609e-01
8.287808299064636230e-01
9.513016939163208008e-01
1.000000000000000000e+00
9.620524048805236816e-01
8.477209806442260742e-01
6.868312358856201172e-01
5.156458020210266113e-01
3.623388707637786865e-01
2.392450869083404541e-01
1.456567496061325073e-01
7.687252759933471680e-02
3.235318884253501892e-02
1.641250401735305786e-02
3.161176294088363647e-02
7.142977416515350342e-02
1.200606599450111389e-01
1.590866893529891968e-01
1.778582930564880371e-01
1.779930889606475830e-01
1.700227409601211548e-01
1.645631492137908936e-01
1.652203202247619629e-01
1.681691855192184448e-01
1.670233309268951416e-01
1.594742536544799805e-01
1.495155394077301025e-01
1.440053880214691162e-01
1.469711065292358398e-01
1.557165682315826416e-01
1.636195182800292969e-01
1.646811068058013916e-01
1.588676422834396362e-01
1.522284895181655884e-01
1.520599871873855591e-01
1.604852974414825439e-01
1.729884594678878784e-01
1.816496700048446655e-01
1.811610013246536255e-01
1.736961901187896729e-01
1.666020750999450684e-01
1.670401841402053833e-01
1.759036183357238770e-01
1.871092766523361206e-01
1.929564476013183594e-01
1.899401843547821045e-01
1.821215003728866577e-01
1.774370223283767700e-01
1.811947077512741089e-01
1.916757971048355103e-01
2.018535733222961426e-01
2.047855705022811890e-01
1.995618790388107300e-01
1.921476125717163086e-01
1.900749802589416504e-01
1.967815309762954712e-01
2.085601091384887695e-01
2.178111076354980469e-01
2.190580517053604126e-01
2.133962363004684448e-01
2.077175825834274292e-01
2.092172950506210327e-01
2.193950563669204712e-01
2.332125753164291382e-01
2.429185211658477783e-01
2.442160248756408691e-01
2.395821064710617065e-01
2.359086722135543823e-01
2.385205179452896118e-01
2.473839372396469116e-01
2.570056319236755371e-01
2.612351477146148682e-01
2.585727572441101074e-01
2.534501552581787109e-01
2.527087330818176270e-01
2.598028481006622314e-01
2.717499434947967529e-01
2.809840738773345947e-01
2.816075384616851807e-01
2.741090357303619385e-01
2.652287483215332031e-01
2.626000642776489258e-01
2.684640586376190186e-01
2.782879769802093506e-01
2.845900952816009521e-01
2.829387485980987549e-01
2.759457528591156006e-01
2.707051932811737061e-01
2.727104127407073975e-01
2.811525762081146240e-01
2.896116077899932861e-01
2.908922433853149414e-01
2.829555869102478027e-01
2.706041038036346436e-01
2.619260251522064209e-01
2.615047693252563477e-01
2.669643461704254150e-01
2.710590660572052002e-01
2.673182189464569092e-01
2.554385364055633545e-01
2.416210323572158813e-01
2.336506843566894531e-01
2.344763725996017456e-01
2.398011684417724609e-01
2.414188235998153687e-01
2.337349355220794678e-01
2.180975675582885742e-01
2.018872648477554321e-01
1.927036792039871216e-01
1.926194280385971069e-01
1.966804265975952148e-01
1.973207443952560425e-01
1.903277486562728882e-01
1.781952977180480957e-01
1.679838299751281738e-01
1.653719842433929443e-01
1.696014851331710815e-01
1.745555698871612549e-01
1.734771281480789185e-01
1.647822111845016479e-01
1.540483683347702026e-01
1.492964923381805420e-01
1.544359326362609863e-01
1.660291552543640137e-01
1.757014095783233643e-01
1.767798513174057007e-01
1.693318784236907959e-01
1.600977331399917603e-01
1.569129675626754761e-01
1.622040569782257080e-01
